Wavelength (nm),Intensity B34.3,,D:/Lab/LED Spectras v2/Spectrometer Data (Blue 25.3-37).sp,,,B34.3,
379.792,2.095,,2018-06-14 15:19:03,,Integration Time,159 ms,
380.000,2.088,,Analyze Light,,Number of Scans to Average,25,
380.209,2.084,,,,Smoothing,1,
380.418,2.101
380.627,2.120
380.837,2.137
381.048,2.146
381.259,2.147
381.471,2.144
381.683,2.150
381.896,2.163
382.110,2.171
382.324,2.181
382.538,2.195
382.753,2.207
382.969,2.195
383.185,2.180
383.402,2.172
383.619,2.187
383.837,2.208
384.055,2.237
384.274,2.264
384.493,2.278
384.712,2.278
384.932,2.276
385.153,2.280
385.374,2.286
385.596,2.294
385.818,2.311
386.040,2.331
386.263,2.349
386.487,2.354
386.710,2.352
386.935,2.340
387.159,2.335
387.385,2.330
387.610,2.333
387.836,2.335
388.063,2.346
388.289,2.359
388.517,2.369
388.744,2.369
388.972,2.380
389.201,2.390
389.430,2.406
389.659,2.413
389.889,2.425
390.119,2.437
390.349,2.447
390.580,2.458
390.811,2.465
391.042,2.471
391.274,2.477
391.507,2.482
391.739,2.481
391.972,2.471
392.205,2.472
392.439,2.485
392.673,2.504
392.907,2.518
393.142,2.534
393.377,2.547
393.612,2.563
393.848,2.569
394.084,2.576
394.320,2.575
394.557,2.586
394.794,2.597
395.031,2.618
395.269,2.634
395.507,2.648
395.745,2.649
395.983,2.652
396.222,2.658
396.461,2.680
396.700,2.701
396.940,2.717
397.180,2.715
397.420,2.707
397.660,2.700
397.901,2.697
398.142,2.702
398.383,2.704
398.625,2.707
398.866,2.721
399.108,2.749
399.351,2.787
399.593,2.796
399.836,2.793
400.079,2.774
400.322,2.767
400.566,2.758
400.809,2.759
401.053,2.766
401.298,2.779
401.542,2.796
401.787,2.818
402.031,2.836
402.277,2.852
402.522,2.856
402.767,2.864
403.013,2.858
403.259,2.860
403.505,2.857
403.752,2.863
403.998,2.870
404.245,2.898
404.492,2.924
404.739,2.941
404.986,2.942
405.234,2.948
405.482,2.949
405.730,2.943
405.978,2.940
406.226,2.938
406.475,2.938
406.723,2.938
406.972,2.950
407.221,2.968
407.470,2.982
407.720,2.998
407.969,2.998
408.219,3.011
408.469,3.020
408.719,3.039
408.969,3.043
409.219,3.054
409.470,3.065
409.720,3.087
409.971,3.102
410.222,3.123
410.473,3.129
410.724,3.131
410.976,3.136
411.227,3.152
411.479,3.164
411.731,3.170
411.983,3.162
412.235,3.162
412.487,3.155
412.740,3.163
412.992,3.169
413.245,3.180
413.497,3.181
413.750,3.183
414.003,3.177
414.257,3.177
414.510,3.176
414.763,3.187
415.017,3.194
415.270,3.204
415.524,3.205
415.778,3.207
416.032,3.199
416.286,3.208
416.540,3.214
416.794,3.233
417.049,3.231
417.303,3.229
417.558,3.223
417.812,3.225
418.067,3.233
418.322,3.242
418.577,3.242
418.832,3.235
419.088,3.219
419.343,3.223
419.598,3.221
419.854,3.235
420.109,3.244
420.365,3.269
420.621,3.278
420.876,3.291
421.132,3.294
421.388,3.298
421.645,3.298
421.901,3.310
422.157,3.323
422.413,3.340
422.670,3.347
422.926,3.360
423.183,3.366
423.439,3.384
423.696,3.406
423.953,3.451
424.210,3.493
424.467,3.523
424.724,3.532
424.981,3.534
425.238,3.545
425.495,3.581
425.753,3.622
426.010,3.670
426.267,3.711
426.525,3.770
426.782,3.825
427.040,3.884
427.298,3.943
427.555,4.023
427.813,4.098
428.071,4.174
428.329,4.238
428.587,4.311
428.845,4.389
429.103,4.484
429.361,4.589
429.619,4.706
429.878,4.814
430.136,4.934
430.394,5.046
430.653,5.188
430.911,5.340
431.170,5.510
431.428,5.660
431.687,5.809
431.946,5.951
432.204,6.122
432.463,6.308
432.722,6.504
432.981,6.693
433.240,6.901
433.499,7.119
433.758,7.360
434.017,7.592
434.276,7.839
434.535,8.081
434.794,8.344
435.053,8.620
435.312,8.923
435.572,9.230
435.831,9.549
436.090,9.878
436.350,10.224
436.609,10.589
436.869,10.969
437.128,11.351
437.388,11.736
437.647,12.139
437.907,12.576
438.166,13.016
438.426,13.464
438.686,13.923
438.946,14.419
439.205,14.942
439.465,15.503
439.725,16.085
439.985,16.697
440.245,17.303
440.505,17.930
440.765,18.570
441.025,19.243
441.285,19.948
441.545,20.671
441.805,21.430
442.065,22.215
442.325,23.058
442.585,23.940
442.846,24.878
443.106,25.877
443.366,26.912
443.626,27.984
443.887,29.077
444.147,30.240
444.407,31.449
444.668,32.720
444.928,34.051
445.189,35.458
445.449,36.914
445.710,38.426
445.970,39.990
446.231,41.643
446.491,43.368
446.752,45.160
447.012,46.998
447.273,48.885
447.534,50.808
447.794,52.763
448.055,54.770
448.316,56.856
448.577,59.025
448.837,61.227
449.098,63.442
449.359,65.639
449.620,67.809
449.881,69.969
450.142,72.106
450.403,74.255
450.664,76.401
450.924,78.520
451.185,80.566
451.446,82.460
451.707,84.142
451.969,85.562
452.230,86.724
452.491,87.689
452.752,88.525
453.013,89.263
453.274,89.926
453.535,90.497
453.796,90.974
454.058,91.358
454.319,91.656
454.580,91.887
454.841,92.056
455.103,92.170
455.364,92.231
455.625,92.242
455.887,92.198
456.148,92.112
456.409,91.985
456.671,91.819
456.932,91.602
457.194,91.326
457.455,90.989
457.716,90.591
457.978,90.139
458.239,89.621
458.501,89.032
458.763,88.366
459.024,87.613
459.286,86.736
459.547,85.700
459.809,84.438
460.071,82.952
460.332,81.290
460.594,79.569
460.856,77.847
461.117,76.116
461.379,74.405
461.641,72.707
461.903,71.047
462.164,69.408
462.426,67.808
462.688,66.251
462.950,64.726
463.212,63.256
463.474,61.828
463.736,60.449
463.998,59.131
464.260,57.885
464.522,56.711
464.784,55.578
465.046,54.505
465.308,53.501
465.570,52.581
465.832,51.698
466.094,50.854
466.356,50.008
466.618,49.172
466.880,48.335
467.142,47.524
467.405,46.756
467.667,46.032
467.929,45.319
468.191,44.616
468.454,43.899
468.716,43.184
468.978,42.431
469.241,41.676
469.503,40.915
469.765,40.192
470.028,39.461
470.290,38.738
470.552,38.002
470.815,37.295
471.077,36.576
471.340,35.860
471.602,35.132
471.865,34.403
472.128,33.671
472.390,32.936
472.653,32.195
472.915,31.451
473.178,30.715
473.441,29.981
473.703,29.239
473.966,28.489
474.229,27.752
474.492,27.026
474.755,26.314
475.017,25.637
475.280,24.975
475.543,24.336
475.806,23.667
476.069,23.009
476.332,22.350
476.595,21.733
476.858,21.141
477.121,20.570
477.384,20.018
477.647,19.489
477.910,18.976
478.173,18.480
478.436,17.989
478.699,17.520
478.962,17.068
479.226,16.647
479.489,16.240
479.752,15.847
480.015,15.451
480.279,15.072
480.542,14.701
480.805,14.344
481.069,13.991
481.332,13.653
481.595,13.331
481.859,13.043
482.122,12.755
482.386,12.462
482.649,12.153
482.913,11.859
483.177,11.578
483.440,11.312
483.704,11.048
483.967,10.812
484.231,10.581
484.495,10.370
484.759,10.147
485.022,9.925
485.286,9.698
485.550,9.474
485.814,9.237
486.078,9.006
486.342,8.789
486.606,8.604
486.869,8.420
487.133,8.244
487.397,8.065
487.662,7.885
487.926,7.686
488.190,7.492
488.454,7.292
488.718,7.115
488.982,6.923
489.246,6.751
489.511,6.562
489.775,6.382
490.039,6.201
490.304,6.035
490.568,5.871
490.832,5.722
491.097,5.586
491.361,5.464
491.626,5.333
491.890,5.200
492.155,5.060
492.419,4.935
492.684,4.800
492.949,4.669
493.213,4.533
493.478,4.425
493.743,4.316
494.008,4.198
494.272,4.073
494.537,3.977
494.802,3.898
495.067,3.832
495.332,3.761
495.597,3.696
495.862,3.615
496.127,3.537
496.392,3.454
496.657,3.378
496.922,3.300
497.187,3.236
497.452,3.181
497.718,3.142
497.983,3.091
498.248,3.037
498.513,2.971
498.779,2.930
499.044,2.902
499.310,2.867
499.575,2.814
499.841,2.763
500.106,2.723
500.372,2.683
500.637,2.644
500.903,2.622
501.168,2.600
501.434,2.568
501.700,2.517
501.966,2.477
502.231,2.443
502.497,2.417
502.763,2.383
503.029,2.350
503.295,2.321
503.561,2.298
503.827,2.287
504.093,2.278
504.359,2.264
504.625,2.245
504.891,2.217
505.157,2.198
505.423,2.166
505.690,2.134
505.956,2.104
506.222,2.094
506.489,2.100
506.755,2.110
507.021,2.111
507.288,2.103
507.554,2.088
507.821,2.077
508.087,2.066
508.354,2.065
508.621,2.054
508.887,2.033
509.154,2.008
509.421,1.991
509.687,1.974
509.954,1.958
510.221,1.944
510.488,1.946
510.755,1.948
511.022,1.948
511.289,1.935
511.556,1.923
511.823,1.910
512.090,1.915
512.357,1.909
512.624,1.901
512.891,1.882
513.159,1.868
513.426,1.856
513.693,1.851
513.960,1.850
514.228,1.852
514.495,1.854
514.763,1.851
515.030,1.842
515.298,1.826
515.565,1.821
515.833,1.821
516.100,1.822
516.368,1.816
516.636,1.806
516.904,1.801
517.171,1.792
517.439,1.790
517.707,1.785
517.975,1.783
518.243,1.784
518.511,1.781
518.779,1.767
519.047,1.760
519.315,1.760
519.583,1.762
519.851,1.749
520.119,1.735
520.387,1.728
520.656,1.725
520.924,1.725
521.192,1.726
521.461,1.729
521.729,1.734
521.997,1.738
522.266,1.741
522.534,1.740
522.803,1.739
523.071,1.733
523.340,1.717
523.609,1.696
523.877,1.684
524.146,1.686
524.415,1.696
524.684,1.707
524.952,1.707
525.221,1.705
525.490,1.710
525.759,1.719
526.028,1.721
526.297,1.705
526.566,1.688
526.835,1.681
527.104,1.684
527.373,1.691
527.642,1.692
527.912,1.684
528.181,1.676
528.450,1.675
528.719,1.683
528.989,1.698
529.258,1.711
529.528,1.717
529.797,1.710
530.067,1.702
530.336,1.693
530.606,1.686
530.875,1.675
531.145,1.669
531.414,1.669
531.684,1.673
531.954,1.670
532.224,1.660
532.493,1.642
532.763,1.631
533.033,1.633
533.303,1.643
533.573,1.651
533.843,1.643
534.113,1.635
534.383,1.627
534.653,1.632
534.923,1.641
535.193,1.652
535.463,1.666
535.733,1.677
536.004,1.686
536.274,1.688
536.544,1.680
536.814,1.665
537.085,1.652
537.355,1.654
537.626,1.666
537.896,1.677
538.166,1.678
538.437,1.671
538.707,1.663
538.978,1.662
539.249,1.673
539.519,1.678
539.790,1.670
540.061,1.661
540.331,1.666
540.602,1.685
540.873,1.696
541.144,1.696
541.414,1.686
541.685,1.681
541.956,1.677
542.227,1.676
542.498,1.669
542.769,1.665
543.040,1.669
543.311,1.683
543.582,1.700
543.853,1.706
544.124,1.709
544.396,1.708
544.667,1.709
544.938,1.706
545.209,1.679
545.480,1.661
545.752,1.652
546.023,1.669
546.294,1.673
546.566,1.668
546.837,1.651
547.109,1.638
547.380,1.628
547.652,1.621
547.923,1.619
548.195,1.627
548.466,1.646
548.738,1.667
549.009,1.671
549.281,1.662
549.553,1.644
549.824,1.621
550.096,1.606
550.368,1.601
550.640,1.609
550.911,1.621
551.183,1.642
551.455,1.669
551.727,1.689
551.999,1.681
552.271,1.658
552.543,1.635
552.815,1.626
553.087,1.634
553.359,1.646
553.631,1.653
553.903,1.650
554.175,1.648
554.447,1.652
554.719,1.656
554.991,1.658
555.263,1.656
555.535,1.649
555.808,1.638
556.080,1.624
556.352,1.616
556.624,1.616
556.897,1.616
557.169,1.615
557.441,1.608
557.714,1.601
557.986,1.599
558.258,1.597
558.531,1.606
558.803,1.611
559.076,1.615
559.348,1.610
559.621,1.603
559.893,1.606
560.166,1.609
560.438,1.608
560.711,1.598
560.983,1.588
561.256,1.586
561.528,1.594
561.801,1.607
562.074,1.623
562.346,1.640
562.619,1.656
562.892,1.657
563.164,1.646
563.437,1.639
563.710,1.635
563.983,1.626
564.255,1.613
564.528,1.616
564.801,1.631
565.074,1.641
565.346,1.633
565.619,1.628
565.892,1.633
566.165,1.632
566.438,1.619
566.711,1.602
566.984,1.595
567.257,1.591
567.529,1.596
567.802,1.614
568.075,1.632
568.348,1.631
568.621,1.623
568.894,1.615
569.167,1.616
569.440,1.608
569.713,1.595
569.986,1.588
570.259,1.588
570.532,1.597
570.805,1.605
571.078,1.607
571.351,1.612
571.625,1.614
571.898,1.607
572.171,1.587
572.444,1.573
572.717,1.580
572.990,1.599
573.263,1.600
573.536,1.587
573.809,1.566
574.083,1.559
574.356,1.567
574.629,1.592
574.902,1.608
575.175,1.610
575.448,1.595
575.721,1.581
575.995,1.575
576.268,1.575
576.541,1.585
576.814,1.596
577.087,1.607
577.361,1.608
577.634,1.601
577.907,1.580
578.180,1.563
578.453,1.558
578.727,1.569
579.000,1.581
579.273,1.593
579.546,1.606
579.820,1.621
580.093,1.626
580.366,1.616
580.639,1.596
580.913,1.585
581.186,1.581
581.459,1.582
581.732,1.572
582.005,1.568
582.279,1.565
582.552,1.571
582.825,1.574
583.098,1.581
583.372,1.588
583.645,1.594
583.918,1.599
584.191,1.598
584.464,1.594
584.738,1.588
585.011,1.587
585.284,1.587
585.557,1.584
585.831,1.586
586.104,1.598
586.377,1.622
586.650,1.635
586.923,1.636
587.196,1.626
587.470,1.612
587.743,1.602
588.016,1.596
588.289,1.600
588.562,1.611
588.835,1.615
589.109,1.605
589.382,1.586
589.655,1.573
589.928,1.563
590.201,1.557
590.474,1.568
590.747,1.584
591.020,1.599
591.293,1.602
591.567,1.604
591.840,1.600
592.113,1.591
592.386,1.574
592.659,1.560
592.932,1.558
593.205,1.573
593.478,1.580
593.751,1.575
594.024,1.568
594.297,1.561
594.570,1.557
594.843,1.562
595.116,1.575
595.389,1.587
595.662,1.584
595.934,1.582
596.207,1.589
596.480,1.600
596.753,1.611
597.026,1.615
597.299,1.614
597.572,1.608
597.844,1.598
598.117,1.583
598.390,1.573
598.663,1.568
598.936,1.577
599.208,1.586
599.481,1.598
599.754,1.603
600.026,1.593
600.299,1.578
600.572,1.565
600.844,1.559
601.117,1.550
601.390,1.543
601.662,1.542
601.935,1.541
602.207,1.544
602.480,1.552
602.752,1.560
603.025,1.552
603.297,1.547
603.570,1.555
603.842,1.580
604.115,1.593
604.387,1.597
604.660,1.585
604.932,1.578
605.204,1.581
605.477,1.596
605.749,1.614
606.021,1.627
606.294,1.634
606.566,1.626
606.838,1.621
607.110,1.619
607.383,1.628
607.655,1.634
607.927,1.640
608.199,1.645
608.471,1.649
608.743,1.641
609.015,1.630
609.287,1.622
609.559,1.622
609.831,1.627
610.103,1.625
610.375,1.619
610.647,1.608
610.919,1.595
611.191,1.587
611.463,1.588
611.735,1.592
612.007,1.589
612.278,1.581
612.550,1.577
612.822,1.581
613.094,1.591
613.365,1.595
613.637,1.601
613.909,1.602
614.180,1.606
614.452,1.604
614.723,1.596
614.995,1.584
615.266,1.577
615.538,1.583
615.809,1.592
616.081,1.591
616.352,1.583
616.623,1.576
616.895,1.571
617.166,1.564
617.437,1.558
617.709,1.561
617.980,1.573
618.251,1.588
618.522,1.599
618.793,1.613
619.065,1.632
619.336,1.632
619.607,1.616
619.878,1.602
620.149,1.607
620.420,1.613
620.691,1.611
620.962,1.611
621.232,1.618
621.503,1.615
621.774,1.605
622.045,1.598
622.316,1.610
622.586,1.627
622.857,1.640
623.128,1.639
623.398,1.634
623.669,1.625
623.940,1.615
624.210,1.599
624.481,1.594
624.751,1.591
625.021,1.586
625.292,1.577
625.562,1.574
625.833,1.575
626.103,1.569
626.373,1.557
626.643,1.556
626.914,1.561
627.184,1.570
627.454,1.571
627.724,1.572
627.994,1.578
628.264,1.583
628.534,1.579
628.804,1.572
629.074,1.573
629.344,1.581
629.614,1.582
629.884,1.571
630.154,1.556
630.424,1.542
630.693,1.529
630.963,1.512
631.233,1.495
631.502,1.495
631.772,1.515
632.041,1.544
632.311,1.563
632.581,1.570
632.850,1.567
633.119,1.551
633.389,1.535
633.658,1.525
633.928,1.534
634.197,1.549
634.466,1.567
634.735,1.580
635.004,1.577
635.274,1.566
635.543,1.554
635.812,1.554
636.081,1.557
636.350,1.557
636.619,1.558
636.888,1.558
637.157,1.562
637.426,1.568
637.694,1.572
637.963,1.572
638.232,1.567
638.501,1.560
638.769,1.560
639.038,1.566
639.307,1.582
639.575,1.594
639.844,1.590
640.112,1.577
640.381,1.556
640.649,1.550
640.917,1.551
641.186,1.556
641.454,1.561
641.722,1.559
641.991,1.558
642.259,1.546
642.527,1.539
642.795,1.539
643.063,1.534
643.331,1.533
643.599,1.530
643.867,1.544
644.135,1.554
644.403,1.568
644.671,1.570
644.939,1.575
645.206,1.574
645.474,1.580
645.742,1.572
646.009,1.549
646.277,1.533
646.545,1.534
646.812,1.563
647.080,1.587
647.347,1.598
647.615,1.591
647.882,1.565
648.149,1.541
648.417,1.523
648.684,1.527
648.951,1.546
649.219,1.565
649.486,1.572
649.753,1.570
650.020,1.557
650.287,1.544
650.554,1.531
650.821,1.526
651.088,1.529
651.355,1.542
651.622,1.554
651.889,1.563
652.155,1.556
652.422,1.557
652.689,1.565
652.956,1.572
653.222,1.580
653.489,1.596
653.755,1.608
654.022,1.603
654.288,1.579
654.555,1.565
654.821,1.564
655.088,1.574
655.354,1.581
655.620,1.591
655.887,1.594
656.153,1.598
656.419,1.596
656.685,1.595
656.951,1.592
657.217,1.586
657.483,1.576
657.749,1.567
658.015,1.565
658.281,1.565
658.547,1.555
658.813,1.540
659.079,1.526
659.345,1.519
659.610,1.518
659.876,1.522
660.142,1.529
660.407,1.533
660.673,1.538
660.939,1.548
661.204,1.550
661.470,1.542
661.735,1.532
662.000,1.534
662.266,1.537
662.531,1.538
662.796,1.535
663.062,1.529
663.327,1.522
663.592,1.521
663.857,1.529
664.122,1.534
664.388,1.531
664.653,1.530
664.918,1.538
665.183,1.545
665.448,1.555
665.712,1.564
665.977,1.578
666.242,1.580
666.507,1.556
666.772,1.525
667.037,1.503
667.301,1.509
667.566,1.523
667.831,1.539
668.095,1.548
668.360,1.551
668.624,1.540
668.889,1.542
669.153,1.537
669.418,1.539
669.682,1.533
669.946,1.536
670.211,1.547
670.475,1.560
670.739,1.576
671.004,1.593
671.268,1.624
671.532,1.657
671.796,1.650
672.060,1.628
672.324,1.599
672.588,1.607
672.852,1.621
673.116,1.665
673.380,1.707
673.644,1.688
673.908,1.628
674.172,1.569
674.436,1.565
674.700,1.568
674.963,1.575
675.227,1.576
675.491,1.565
675.754,1.555
676.018,1.548
676.282,1.558
676.545,1.560
676.809,1.551
677.072,1.537
677.336,1.532
677.599,1.543
677.863,1.547
678.126,1.551
678.389,1.562
678.653,1.574
678.916,1.571
679.179,1.551
679.442,1.540
679.706,1.544
679.969,1.551
680.232,1.558
680.495,1.570
680.758,1.586
681.021,1.587
681.284,1.574
681.547,1.558
681.810,1.562
682.073,1.580
682.336,1.596
682.599,1.593
682.862,1.583
683.125,1.576
683.388,1.576
683.651,1.572
683.913,1.565
684.176,1.551
684.439,1.537
684.702,1.517
684.964,1.504
685.227,1.504
685.490,1.521
685.752,1.548
686.015,1.559
686.277,1.556
686.540,1.543
686.802,1.529
687.065,1.529
687.327,1.537
687.590,1.549
687.852,1.545
688.115,1.529
688.377,1.518
688.639,1.518
688.902,1.522
689.164,1.531
689.426,1.546
689.689,1.563
689.951,1.567
690.213,1.565
690.475,1.560
690.737,1.554
691.000,1.542
691.262,1.536
691.524,1.542
691.786,1.561
692.048,1.579
692.310,1.582
692.572,1.559
692.834,1.534
693.096,1.524
693.358,1.538
693.620,1.562
693.882,1.584
694.144,1.592
694.406,1.584
694.668,1.570
694.930,1.557
695.192,1.550
695.453,1.552
695.715,1.555
695.977,1.547
696.239,1.529
696.501,1.519
696.762,1.525
697.024,1.531
697.286,1.526
697.548,1.522
697.809,1.524
698.071,1.527
698.333,1.528
698.594,1.526
698.856,1.532
699.118,1.537
699.379,1.543
699.641,1.551
699.902,1.560
700.164,1.563
700.426,1.557
700.687,1.548
700.949,1.546
701.210,1.545
701.472,1.537
701.733,1.525
701.995,1.525
702.256,1.531
702.518,1.537
702.779,1.535
703.041,1.546
703.302,1.558
703.563,1.555
703.825,1.538
704.086,1.528
704.348,1.528
704.609,1.538
704.871,1.555
705.132,1.574
705.393,1.569
705.655,1.553
705.916,1.541
706.177,1.545
706.439,1.551
706.700,1.551
706.961,1.551
707.223,1.549
707.484,1.527
707.745,1.506
708.007,1.484
708.268,1.474
708.529,1.459
708.790,1.437
709.052,1.424
709.313,1.424
709.574,1.434
709.835,1.442
710.097,1.437
710.358,1.419
710.619,1.399
710.881,1.384
711.142,1.379
711.403,1.377
711.664,1.377
711.926,1.372
712.187,1.372
712.448,1.374
712.709,1.386
712.970,1.400
713.232,1.412
713.493,1.421
713.754,1.422
714.015,1.425
714.277,1.429
714.538,1.440
714.799,1.458
715.060,1.467
715.322,1.466
715.583,1.450
715.844,1.434
716.105,1.418
716.367,1.409
716.628,1.409
716.889,1.412
717.150,1.407
717.411,1.396
717.673,1.394
717.934,1.401
718.195,1.412
718.457,1.411
718.718,1.403
718.979,1.394
719.240,1.395
719.502,1.405
719.763,1.416
720.024,1.421
720.286,1.419
720.547,1.408
720.808,1.398
721.069,1.394
721.331,1.402
721.592,1.417
721.853,1.426
722.115,1.433
722.376,1.437
722.638,1.439
722.899,1.435
723.160,1.423
723.422,1.411
723.683,1.406
723.944,1.411
724.206,1.415
724.467,1.412
724.729,1.406
724.990,1.412
725.252,1.420
725.513,1.412
725.775,1.393
726.036,1.380
726.298,1.382
726.559,1.391
726.821,1.395
727.082,1.398
727.344,1.397
727.605,1.398
727.867,1.397
728.128,1.400
728.390,1.401
728.652,1.410
728.913,1.421
729.175,1.429
729.436,1.427
729.698,1.425
729.960,1.422
730.221,1.420
730.483,1.406
730.745,1.397
731.007,1.397
731.268,1.399
731.530,1.399
731.792,1.399
732.054,1.404
732.315,1.412
732.577,1.415
732.839,1.411
733.101,1.398
733.363,1.390
733.625,1.389
733.887,1.397
734.149,1.402
734.411,1.409
734.673,1.412
734.935,1.414
735.197,1.411
735.459,1.416
735.721,1.423
735.983,1.424
736.245,1.411
736.507,1.406
736.769,1.414
737.031,1.424
737.293,1.417
737.555,1.399
737.818,1.383
738.080,1.372
738.342,1.371
738.604,1.374
738.867,1.378
739.129,1.376
739.391,1.373
739.654,1.376
739.916,1.383
740.178,1.394
740.441,1.408
740.703,1.413
740.966,1.407
741.228,1.399
741.491,1.393
741.753,1.394
742.016,1.394
742.278,1.396
742.541,1.399
742.804,1.400
743.066,1.409
743.329,1.412
743.592,1.411
743.854,1.405
744.117,1.406
744.380,1.412
744.643,1.411
744.905,1.400
745.168,1.391
745.431,1.387
745.694,1.388
745.957,1.387
746.220,1.383
746.483,1.381
746.746,1.381
747.009,1.394
747.272,1.415
747.535,1.435
747.798,1.440
748.061,1.428
748.324,1.407
748.588,1.393
748.851,1.387
749.114,1.388
749.377,1.391
749.641,1.393
749.904,1.401
750.167,1.411
750.431,1.419
750.694,1.428
750.958,1.434
751.221,1.429
751.485,1.410
751.748,1.393
752.012,1.394
752.275,1.412
752.539,1.421
752.803,1.414
753.066,1.396
753.330,1.381
753.594,1.378
753.857,1.383
754.121,1.396
754.385,1.409
754.649,1.417
754.913,1.418
755.177,1.423
755.441,1.419
755.705,1.410
755.969,1.396
756.233,1.402
756.497,1.412
756.761,1.417
757.025,1.408
757.289,1.396
757.553,1.391
757.818,1.393
758.082,1.399
758.346,1.403
758.610,1.405
758.875,1.406
759.139,1.406
759.404,1.402
759.668,1.395
759.932,1.394
760.197,1.399
760.462,1.408
760.726,1.410
760.991,1.408
761.255,1.406
761.520,1.403
761.785,1.397
762.049,1.385
762.314,1.379
762.579,1.385
762.844,1.402
763.109,1.413
763.374,1.411
763.639,1.405
763.903,1.396
764.168,1.395
764.433,1.396
764.699,1.411
764.964,1.419
765.229,1.415
765.494,1.401
765.759,1.393
766.024,1.392
766.290,1.400
766.555,1.410
766.820,1.419
767.086,1.424
767.351,1.425
767.616,1.421
767.882,1.415
768.147,1.410
768.413,1.402
768.678,1.391
768.944,1.388
769.209,1.394
769.475,1.403
769.741,1.413
770.006,1.424
770.272,1.433
770.538,1.431
770.804,1.425
771.070,1.422
771.335,1.430
771.601,1.442
771.867,1.447
772.133,1.441
772.399,1.429
772.665,1.415
772.931,1.413
773.197,1.419
773.464,1.430
773.730,1.439
773.996,1.441
774.262,1.444
774.528,1.439
774.795,1.438
775.061,1.442
775.327,1.444
775.594,1.436
775.860,1.418
776.126,1.399
776.393,1.386
776.659,1.383
776.926,1.385
777.193,1.395
777.459,1.400
777.726,1.398
777.992,1.393
778.259,1.385
778.526,1.391
778.793,1.395
779.059,1.403
779.326,1.410
779.593,1.416
779.860,1.425
780.127,1.426
780.394,1.426
780.661,1.423
780.928,1.418
781.195,1.410
781.462,1.401
781.729,1.402
781.996,1.405
782.263,1.404
782.530,1.410
782.797,1.413
783.064,1.411
783.332,1.400
783.599,1.391
783.866,1.391
784.134,1.392
784.401,1.393
784.668,1.393
784.936,1.396
785.203,1.395
785.470,1.389
785.738,1.386
786.005,1.384
786.273,1.381
786.541,1.377
786.808,1.382
787.076,1.389
787.343,1.396
787.611,1.404
787.879,1.417
788.146,1.421
788.414,1.425
788.682,1.419
788.950,1.418
789.217,1.417
789.485,1.425
789.753,1.435
790.021,1.427
790.289,1.407
790.557,1.383
790.825,1.375
791.093,1.384
791.361,1.404
791.629,1.420
791.897,1.428
792.165,1.425
792.433,1.417
792.701,1.398
792.969,1.379
793.237,1.367
793.505,1.377
793.773,1.392
794.042,1.396
794.310,1.393
794.578,1.390
794.846,1.392
795.115,1.390
795.383,1.390
795.651,1.398
795.920,1.407
796.188,1.409
796.456,1.411
796.725,1.413
796.993,1.423
797.261,1.428
797.530,1.425
797.798,1.416
798.067,1.415
798.335,1.426
798.604,1.430
798.872,1.419
799.141,1.402
799.409,1.394
799.678,1.396
799.946,1.406
800.215,1.413
800.483,1.414
800.752,1.412
801.020,1.407
801.289,1.403
801.558,1.399
801.826,1.401
802.095,1.399
802.363,1.399
802.632,1.405
802.901,1.416
803.169,1.421
803.438,1.413
803.707,1.396
803.976,1.379
804.244,1.377
804.513,1.382
804.782,1.381
805.050,1.377
805.319,1.379
805.588,1.393
805.857,1.407
806.125,1.411
806.394,1.408
806.663,1.396
806.931,1.387
807.200,1.381
807.469,1.381
807.738,1.377
808.006,1.374
808.275,1.379
808.544,1.398
808.813,1.416
809.082,1.422
809.350,1.416
809.619,1.415
809.888,1.410
810.157,1.401
810.425,1.391
810.694,1.388
810.963,1.392
811.232,1.388
811.500,1.382
811.769,1.371
812.038,1.372
812.306,1.380
812.575,1.398
812.844,1.409
813.113,1.415
813.381,1.408
813.650,1.406
813.919,1.411
814.187,1.424
814.456,1.430
814.725,1.432
814.993,1.426
815.262,1.425
815.531,1.424
815.799,1.425
816.068,1.417
816.336,1.401
816.605,1.389
816.873,1.390
817.142,1.398
817.411,1.407
817.679,1.410
817.948,1.418
818.216,1.433
818.485,1.472
818.753,1.502
819.021,1.484
819.290,1.431
819.558,1.392
819.827,1.395
820.095,1.410
820.363,1.413
820.632,1.410
820.900,1.404
821.168,1.403
821.437,1.411
821.705,1.418
821.973,1.422
822.241,1.423
822.509,1.422
822.777,1.412
823.046,1.402
823.314,1.400
823.582,1.408
823.850,1.414
824.118,1.425
824.386,1.427
824.654,1.414
824.922,1.392
825.190,1.376
825.457,1.384
825.725,1.397
825.993,1.400
826.261,1.394
826.529,1.389
826.796,1.390
827.064,1.390
827.332,1.389
827.599,1.392
827.867,1.403
828.134,1.408
828.402,1.403
828.669,1.393
828.937,1.390
829.204,1.405
829.471,1.426
829.739,1.441
830.006,1.440
830.273,1.427
830.540,1.408
830.807,1.392
831.075,1.389
831.342,1.398
831.609,1.406
831.876,1.413
832.142,1.419
832.409,1.427
832.676,1.422
832.943,1.408
833.210,1.396
833.476,1.392
833.743,1.397
834.010,1.402
834.276,1.397
834.543,1.387
834.809,1.386
835.076,1.393
835.342,1.399
835.608,1.410
835.874,1.420
836.141,1.422
836.407,1.415
836.673,1.404
836.939,1.403
837.205,1.401
837.471,1.401
837.737,1.400
838.002,1.393
838.268,1.385
838.534,1.387
838.799,1.392
839.065,1.406
839.330,1.414
839.596,1.422
839.861,1.427
840.127,1.430
840.392,1.428
840.657,1.422
840.922,1.426
841.187,1.435
841.452,1.441
841.717,1.441
841.982,1.432
842.247,1.418
842.511,1.408
842.776,1.409
843.041,1.411
843.305,1.403
843.570,1.392
843.834,1.389
844.098,1.388
844.362,1.390
844.627,1.388
844.891,1.389
845.155,1.392
845.419,1.399
845.682,1.407
845.946,1.409
846.210,1.409
846.474,1.406
846.737,1.409
847.001,1.409
847.264,1.401
847.527,1.393
847.790,1.392
848.054,1.396
848.317,1.390
848.580,1.383
848.843,1.388
849.105,1.410
849.368,1.432
849.631,1.443
849.893,1.443
850.156,1.449
850.418,1.451
850.680,1.434
850.943,1.415
851.205,1.409
851.467,1.411
851.729,1.408
851.991,1.403
852.252,1.407
852.514,1.415
852.776,1.420
853.037,1.425
853.298,1.423
853.560,1.413
853.821,1.397
854.082,1.383
854.343,1.389
854.604,1.411
854.865,1.443
855.126,1.461
855.386,1.467
855.647,1.460
855.907,1.448
856.168,1.430
856.428,1.416
856.688,1.410
856.948,1.399
857.208,1.387
857.468,1.380
857.727,1.386
857.987,1.394
858.247,1.405
858.506,1.417
858.765,1.420
859.024,1.407
859.284,1.390
859.543,1.379
859.801,1.376
860.060,1.380
860.319,1.398
860.577,1.418
860.836,1.428
861.094,1.431
861.352,1.427
861.611,1.415
861.869,1.397
862.127,1.388
862.384,1.393
862.642,1.400
862.900,1.415
863.157,1.425
863.414,1.425
863.672,1.410
863.929,1.388
864.186,1.380
864.443,1.383
864.699,1.392
864.956,1.396
865.212,1.389
865.469,1.385
865.725,1.391
865.981,1.406
866.237,1.417
866.493,1.423
866.749,1.413
867.005,1.401
867.260,1.386
867.516,1.380
867.771,1.376
868.026,1.382
868.282,1.397
868.536,1.407
868.791,1.405
869.046,1.390
869.301,1.381
869.555,1.385
869.809,1.403
870.064,1.417
870.318,1.426
870.572,1.430
870.826,1.416
871.079,1.399
871.333,1.388
871.586,1.394
871.840,1.398
872.093,1.400
872.346,1.409
872.599,1.427
872.852,1.446
873.105,1.455
873.357,1.447
873.610,1.431
873.862,1.426
874.114,1.429
874.366,1.434
874.618,1.426
874.870,1.404
875.121,1.382
875.373,1.374
875.624,1.384
875.876,1.391
876.127,1.392
876.378,1.390
876.629,1.392
876.879,1.400
877.130,1.406
877.381,1.400
877.631,1.384
877.881,1.375
878.131,1.383
878.381,1.404
878.631,1.427
878.881,1.439
879.130,1.438
879.380,1.427
879.629,1.416
879.878,1.405
880.127,1.399
880.376,1.402
880.625,1.414
880.873,1.427
881.122,1.437
881.370,1.438
881.618,1.430
881.866,1.418
882.114,1.405
882.362,1.397
882.610,1.403
882.857,1.412
883.105,1.416
883.352,1.402
883.599,1.388
883.846,1.378
884.093,1.376
884.340,1.387
884.586,1.403
884.833,1.414
885.079,1.416
885.325,1.412
885.571,1.411
885.817,1.408
886.063,1.413
886.309,1.420
886.554,1.433
886.800,1.444
887.045,1.448
887.290,1.437
887.535,1.416
887.780,1.405
888.025,1.411
888.270,1.432
888.514,1.450
888.758,1.455
889.003,1.446
889.247,1.421
889.491,1.416
889.735,1.424
889.978,1.439
890.222,1.440
890.465,1.432
890.709,1.424
890.952,1.411
891.195,1.398
891.438,1.387
891.681,1.380
891.923,1.382
892.166,1.392
892.408,1.398
892.651,1.394
892.893,1.385
893.135,1.381
893.377,1.384
893.619,1.389
893.861,1.397
894.102,1.407
894.344,1.424
894.585,1.444
894.826,1.456
895.067,1.449
895.308,1.432
895.549,1.410
895.790,1.396
896.031,1.384
896.271,1.388
896.512,1.402
896.752,1.420
896.992,1.421
897.232,1.411
897.472,1.399
897.712,1.408
897.952,1.430
898.191,1.445
898.431,1.447
898.670,1.451
898.910,1.453
899.149,1.464
899.388,1.470
899.627,1.472
899.866,1.462
900.105,1.444
900.343,1.434
900.582,1.432
900.820,1.435
901.059,1.442
901.297,1.444
901.535,1.429
901.773,1.404
902.011,1.382
902.249,1.367
902.487,1.365
902.725,1.368
902.963,1.385
903.200,1.392
903.438,1.392
903.675,1.391
903.912,1.395
904.150,1.408
904.387,1.412
904.624,1.405
904.861,1.392
905.098,1.383
905.334,1.389
905.571,1.388
905.808,1.391
906.045,1.400
906.281,1.415
906.518,1.422
906.754,1.424
906.990,1.423
907.227,1.418
907.463,1.405
907.699,1.396
907.935,1.401
908.171,1.415
908.407,1.420
908.643,1.420
908.879,1.418
909.115,1.426
909.350,1.431
909.586,1.432
909.822,1.428
910.057,1.434
910.293,1.451
910.528,1.463
910.764,1.459
910.999,1.454
911.235,1.446
911.470,1.450
911.706,1.440
911.941,1.437
912.176,1.427
912.412,1.417
912.647,1.413
912.882,1.420
913.117,1.427
913.352,1.424
913.588,1.414
913.823,1.407
914.058,1.405
914.293,1.404
914.528,1.396
914.763,1.388
914.999,1.383
915.234,1.390
915.469,1.402
915.704,1.406
915.939,1.401
916.174,1.393
916.409,1.392
916.645,1.409
916.880,1.424
917.115,1.435
917.350,1.431
917.586,1.424
917.821,1.417
918.056,1.420
918.292,1.426
918.527,1.426
918.763,1.417
918.998,1.409
919.234,1.419
919.469,1.438
919.705,1.447
919.940,1.439
920.176,1.427
920.412,1.428
920.648,1.430
920.884,1.427
921.120,1.416
921.356,1.406
921.592,1.398
921.828,1.395
922.065,1.399
922.301,1.412
922.537,1.425
922.774,1.431
923.011,1.421
923.247,1.405
923.484,1.400
923.721,1.410
923.958,1.425
924.195,1.429
924.433,1.426
924.670,1.411
924.908,1.396
925.145,1.393
925.383,1.403
925.621,1.414
925.859,1.420
926.097,1.424
926.335,1.426
926.574,1.429
926.813,1.429
927.051,1.430
927.290,1.428
927.529,1.439
927.769,1.461
928.008,1.474
928.248,1.454
928.487,1.428
928.727,1.416
928.967,1.435
929.208,1.450
929.448,1.451
929.689,1.439
929.930,1.423
930.171,1.408
930.413,1.402
930.654,1.399
930.896,1.393
931.138,1.385
931.380,1.381
931.623,1.393
931.865,1.408
932.108,1.425
932.352,1.436
932.595,1.440
932.839,1.439
933.083,1.429
933.327,1.419
933.571,1.409
933.816,1.412
934.061,1.418
934.307,1.419
934.552,1.407
934.798,1.398
935.045,1.397
935.291,1.403
935.538,1.408
935.785,1.414
936.033,1.424
936.281,1.434
936.529,1.442
936.777,1.439
937.026,1.427
937.275,1.417
937.525,1.407
937.775,1.399
938.025,1.391
938.276,1.383
938.527,1.382
938.778,1.381
939.030,1.380
939.282,1.380
939.535,1.387
939.788,1.400
940.041,1.403
940.295,1.396
940.550,1.395
940.804,1.404
941.059,1.415
941.315,1.411
941.571,1.395
941.828,1.382
942.085,1.378
942.342,1.383
942.600,1.387
942.858,1.388
943.117,1.385
943.377,1.382
943.636,1.377
943.897,1.376
944.158,1.380
944.419,1.393
944.681,1.405
944.944,1.416
945.207,1.423
945.470,1.430
945.734,1.436
945.999,1.448
946.264,1.461
946.530,1.462
946.797,1.450
947.064,1.436
947.331,1.426
947.600,1.416
947.869,1.402
948.138,1.391
948.408,1.385
948.679,1.384
948.950,1.388
949.222,1.385
949.495,1.381
949.768,1.382
950.043,1.396
