Wavelength (nm),Intensity B35.3,,D:/Lab/LED Spectras v2/Spectrometer Data (Blue 25.3-37).sp,,,B35.3,
379.792,1.962,,2018-06-14 15:23:17,,Integration Time,136 ms,
380.000,1.957,,Analyze Light,,Number of Scans to Average,25,
380.209,1.949,,,,Smoothing,1,
380.418,1.958
380.627,1.972
380.837,1.984
381.048,1.986
381.259,1.985
381.471,1.982
381.683,1.986
381.896,1.993
382.110,1.996
382.324,2.007
382.538,2.029
382.753,2.048
382.969,2.045
383.185,2.032
383.402,2.022
383.619,2.029
383.837,2.045
384.055,2.069
384.274,2.087
384.493,2.095
384.712,2.094
384.932,2.092
385.153,2.095
385.374,2.103
385.596,2.112
385.818,2.127
386.040,2.144
386.263,2.162
386.487,2.168
386.710,2.169
386.935,2.159
387.159,2.153
387.385,2.145
387.610,2.145
387.836,2.151
388.063,2.159
388.289,2.165
388.517,2.168
388.744,2.170
388.972,2.180
389.201,2.185
389.430,2.194
389.659,2.200
389.889,2.211
390.119,2.219
390.349,2.223
390.580,2.227
390.811,2.231
391.042,2.236
391.274,2.243
391.507,2.253
391.739,2.252
391.972,2.246
392.205,2.247
392.439,2.260
392.673,2.274
392.907,2.285
393.142,2.299
393.377,2.313
393.612,2.328
393.848,2.332
394.084,2.335
394.320,2.332
394.557,2.340
394.794,2.347
395.031,2.359
395.269,2.365
395.507,2.373
395.745,2.374
395.983,2.378
396.222,2.384
396.461,2.403
396.700,2.424
396.940,2.437
397.180,2.440
397.420,2.436
397.660,2.435
397.901,2.432
398.142,2.434
398.383,2.432
398.625,2.430
398.866,2.438
399.108,2.461
399.351,2.493
399.593,2.502
399.836,2.496
400.079,2.478
400.322,2.472
400.566,2.467
400.809,2.469
401.053,2.473
401.298,2.481
401.542,2.494
401.787,2.512
402.031,2.526
402.277,2.539
402.522,2.543
402.767,2.549
403.013,2.545
403.259,2.547
403.505,2.547
403.752,2.552
403.998,2.556
404.245,2.574
404.492,2.593
404.739,2.609
404.986,2.612
405.234,2.617
405.482,2.618
405.730,2.615
405.978,2.613
406.226,2.607
406.475,2.600
406.723,2.596
406.972,2.607
407.221,2.624
407.470,2.637
407.720,2.651
407.969,2.651
408.219,2.659
408.469,2.667
408.719,2.683
408.969,2.690
409.219,2.698
409.470,2.707
409.720,2.718
409.971,2.726
410.222,2.741
410.473,2.745
410.724,2.743
410.976,2.740
411.227,2.750
411.479,2.761
411.731,2.773
411.983,2.775
412.235,2.778
412.487,2.773
412.740,2.779
412.992,2.786
413.245,2.799
413.497,2.803
413.750,2.804
414.003,2.796
414.257,2.790
414.510,2.788
414.763,2.799
415.017,2.808
415.270,2.814
415.524,2.814
415.778,2.818
416.032,2.828
416.286,2.846
416.540,2.860
416.794,2.873
417.049,2.870
417.303,2.871
417.558,2.873
417.812,2.876
418.067,2.874
418.322,2.877
418.577,2.873
418.832,2.871
419.088,2.859
419.343,2.863
419.598,2.866
419.854,2.879
420.109,2.885
420.365,2.899
420.621,2.904
420.876,2.915
421.132,2.921
421.388,2.926
421.645,2.925
421.901,2.926
422.157,2.930
422.413,2.936
422.670,2.935
422.926,2.937
423.183,2.933
423.439,2.943
423.696,2.954
423.953,2.990
424.210,3.026
424.467,3.049
424.724,3.055
424.981,3.047
425.238,3.053
425.495,3.077
425.753,3.109
426.010,3.141
426.267,3.165
426.525,3.202
426.782,3.233
427.040,3.271
427.298,3.310
427.555,3.363
427.813,3.408
428.071,3.454
428.329,3.494
428.587,3.536
428.845,3.578
429.103,3.631
429.361,3.690
429.619,3.755
429.878,3.818
430.136,3.901
430.394,3.985
430.653,4.097
430.911,4.206
431.170,4.324
431.428,4.424
431.687,4.531
431.946,4.643
432.204,4.772
432.463,4.906
432.722,5.045
432.981,5.180
433.240,5.334
433.499,5.495
433.758,5.680
434.017,5.853
434.276,6.039
434.535,6.219
434.794,6.418
435.053,6.623
435.312,6.845
435.572,7.074
435.831,7.320
436.090,7.594
436.350,7.882
436.609,8.173
436.869,8.463
437.128,8.757
437.388,9.072
437.647,9.395
437.907,9.742
438.166,10.089
438.426,10.445
438.686,10.816
438.946,11.209
439.205,11.620
439.465,12.050
439.725,12.502
439.985,12.975
440.245,13.443
440.505,13.928
440.765,14.409
441.025,14.902
441.285,15.406
441.545,15.939
441.805,16.497
442.065,17.071
442.325,17.652
442.585,18.274
442.846,18.914
443.106,19.614
443.366,20.327
443.626,21.058
443.887,21.807
444.147,22.589
444.407,23.418
444.668,24.280
444.928,25.163
445.189,26.094
445.449,27.063
445.710,28.088
445.970,29.155
446.231,30.275
446.491,31.454
446.752,32.685
447.012,33.962
447.273,35.310
447.534,36.715
447.794,38.179
448.055,39.697
448.316,41.305
448.577,43.011
448.837,44.793
449.098,46.642
449.359,48.549
449.620,50.501
449.881,52.483
450.142,54.516
450.403,56.632
450.664,58.842
450.924,61.104
451.185,63.407
451.446,65.728
451.707,68.068
451.969,70.412
452.230,72.747
452.491,75.059
452.752,77.303
453.013,79.473
453.274,81.524
453.535,83.398
453.796,84.997
454.058,86.307
454.319,87.389
454.580,88.316
454.841,89.123
455.103,89.809
455.364,90.392
455.625,90.885
455.887,91.298
456.148,91.621
456.409,91.859
456.671,92.022
456.932,92.122
457.194,92.155
457.455,92.128
457.716,92.040
457.978,91.902
458.239,91.709
458.501,91.460
458.763,91.147
459.024,90.760
459.286,90.294
459.547,89.747
459.809,89.101
460.071,88.345
460.332,87.473
460.594,86.459
460.856,85.261
461.117,83.829
461.379,82.197
461.641,80.414
461.903,78.556
462.164,76.663
462.426,74.789
462.688,72.952
462.950,71.151
463.212,69.385
463.474,67.649
463.736,65.965
463.998,64.333
464.260,62.783
464.522,61.322
464.784,59.938
465.046,58.609
465.308,57.358
465.570,56.181
465.832,55.085
466.094,54.042
466.356,53.056
466.618,52.106
466.880,51.197
467.142,50.314
467.405,49.480
467.667,48.678
467.929,47.928
468.191,47.189
468.454,46.454
468.716,45.716
468.978,44.993
469.241,44.263
469.503,43.535
469.765,42.803
470.028,42.099
470.290,41.401
470.552,40.715
470.815,40.031
471.077,39.335
471.340,38.637
471.602,37.918
471.865,37.203
472.128,36.472
472.390,35.753
472.653,35.033
472.915,34.316
473.178,33.598
473.441,32.859
473.703,32.113
473.966,31.343
474.229,30.573
474.492,29.795
474.755,29.023
475.017,28.267
475.280,27.530
475.543,26.805
475.806,26.067
476.069,25.314
476.332,24.576
476.595,23.867
476.858,23.194
477.121,22.531
477.384,21.877
477.647,21.249
477.910,20.638
478.173,20.057
478.436,19.481
478.699,18.931
478.962,18.406
479.226,17.918
479.489,17.443
479.752,16.981
480.015,16.529
480.279,16.095
480.542,15.666
480.805,15.245
481.069,14.834
481.332,14.451
481.595,14.082
481.859,13.754
482.122,13.436
482.386,13.127
482.649,12.802
482.913,12.489
483.177,12.181
483.440,11.885
483.704,11.603
483.967,11.356
484.231,11.114
484.495,10.884
484.759,10.647
485.022,10.421
485.286,10.197
485.550,9.973
485.814,9.737
486.078,9.494
486.342,9.257
486.606,9.049
486.869,8.857
487.133,8.679
487.397,8.499
487.662,8.314
487.926,8.117
488.190,7.917
488.454,7.712
488.718,7.513
488.982,7.312
489.246,7.131
489.511,6.950
489.775,6.775
490.039,6.594
490.304,6.414
490.568,6.226
490.832,6.051
491.097,5.889
491.361,5.749
491.626,5.601
491.890,5.455
492.155,5.311
492.419,5.186
492.684,5.049
492.949,4.909
493.213,4.758
493.478,4.628
493.743,4.494
494.008,4.358
494.272,4.219
494.537,4.112
494.802,4.024
495.067,3.950
495.332,3.863
495.597,3.782
495.862,3.689
496.127,3.609
496.392,3.523
496.657,3.440
496.922,3.351
497.187,3.275
497.452,3.215
497.718,3.172
497.983,3.116
498.248,3.057
498.513,2.988
498.779,2.944
499.044,2.904
499.310,2.856
499.575,2.793
499.841,2.737
500.106,2.695
500.372,2.657
500.637,2.621
500.903,2.598
501.168,2.576
501.434,2.544
501.700,2.494
501.966,2.449
502.231,2.409
502.497,2.378
502.763,2.348
503.029,2.322
503.295,2.297
503.561,2.272
503.827,2.253
504.093,2.235
504.359,2.214
504.625,2.196
504.891,2.171
505.157,2.155
505.423,2.131
505.690,2.106
505.956,2.080
506.222,2.068
506.489,2.073
506.755,2.078
507.021,2.075
507.288,2.063
507.554,2.042
507.821,2.023
508.087,2.006
508.354,2.005
508.621,2.002
508.887,1.994
509.154,1.976
509.421,1.958
509.687,1.936
509.954,1.917
510.221,1.903
510.488,1.906
510.755,1.912
511.022,1.917
511.289,1.905
511.556,1.891
511.823,1.873
512.090,1.868
512.357,1.859
512.624,1.855
512.891,1.848
513.159,1.840
513.426,1.825
513.693,1.810
513.960,1.803
514.228,1.804
514.495,1.806
514.763,1.806
515.030,1.798
515.298,1.787
515.565,1.782
515.833,1.779
516.100,1.776
516.368,1.770
516.636,1.766
516.904,1.765
517.171,1.757
517.439,1.749
517.707,1.738
517.975,1.736
518.243,1.737
518.511,1.737
518.779,1.724
519.047,1.718
519.315,1.714
519.583,1.711
519.851,1.699
520.119,1.691
520.387,1.689
520.656,1.690
520.924,1.692
521.192,1.695
521.461,1.697
521.729,1.700
521.997,1.701
522.266,1.699
522.534,1.697
522.803,1.699
523.071,1.697
523.340,1.689
523.609,1.674
523.877,1.662
524.146,1.655
524.415,1.658
524.684,1.664
524.952,1.666
525.221,1.664
525.490,1.666
525.759,1.673
526.028,1.675
526.297,1.663
526.566,1.651
526.835,1.643
527.104,1.647
527.373,1.651
527.642,1.649
527.912,1.637
528.181,1.624
528.450,1.624
528.719,1.631
528.989,1.646
529.258,1.658
529.528,1.661
529.797,1.654
530.067,1.651
530.336,1.647
530.606,1.642
530.875,1.628
531.145,1.621
531.414,1.622
531.684,1.630
531.954,1.632
532.224,1.624
532.493,1.608
532.763,1.600
533.033,1.602
533.303,1.611
533.573,1.621
533.843,1.618
534.113,1.612
534.383,1.600
534.653,1.600
534.923,1.604
535.193,1.611
535.463,1.622
535.733,1.631
536.004,1.639
536.274,1.642
536.544,1.636
536.814,1.623
537.085,1.608
537.355,1.608
537.626,1.620
537.896,1.634
538.166,1.636
538.437,1.632
538.707,1.625
538.978,1.626
539.249,1.634
539.519,1.636
539.790,1.625
540.061,1.615
540.331,1.619
540.602,1.635
540.873,1.645
541.144,1.647
541.414,1.642
541.685,1.639
541.956,1.635
542.227,1.634
542.498,1.625
542.769,1.619
543.040,1.620
543.311,1.633
543.582,1.647
543.853,1.652
544.124,1.654
544.396,1.655
544.667,1.656
544.938,1.651
545.209,1.630
545.480,1.616
545.752,1.608
546.023,1.618
546.294,1.616
546.566,1.609
546.837,1.597
547.109,1.593
547.380,1.593
547.652,1.588
547.923,1.586
548.195,1.591
548.466,1.607
548.738,1.624
549.009,1.626
549.281,1.618
549.553,1.600
549.824,1.582
550.096,1.569
550.368,1.566
550.640,1.566
550.911,1.571
551.183,1.583
551.455,1.606
551.727,1.622
551.999,1.617
552.271,1.598
552.543,1.581
552.815,1.574
553.087,1.579
553.359,1.587
553.631,1.593
553.903,1.592
554.175,1.593
554.447,1.602
554.719,1.608
554.991,1.610
555.263,1.606
555.535,1.599
555.808,1.595
556.080,1.591
556.352,1.589
556.624,1.586
556.897,1.582
557.169,1.582
557.441,1.579
557.714,1.574
557.986,1.568
558.258,1.559
558.531,1.563
558.803,1.574
559.076,1.583
559.348,1.579
559.621,1.568
559.893,1.568
560.166,1.574
560.438,1.577
560.711,1.571
560.983,1.564
561.256,1.562
561.528,1.569
561.801,1.580
562.074,1.595
562.346,1.604
562.619,1.609
562.892,1.604
563.164,1.594
563.437,1.593
563.710,1.594
563.983,1.588
564.255,1.578
564.528,1.579
564.801,1.591
565.074,1.598
565.346,1.592
565.619,1.586
565.892,1.590
566.165,1.593
566.438,1.582
566.711,1.566
566.984,1.558
567.257,1.561
567.529,1.571
567.802,1.588
568.075,1.604
568.348,1.605
568.621,1.597
568.894,1.583
569.167,1.574
569.440,1.564
569.713,1.550
569.986,1.542
570.259,1.537
570.532,1.545
570.805,1.556
571.078,1.566
571.351,1.576
571.625,1.582
571.898,1.579
572.171,1.564
572.444,1.550
572.717,1.552
572.990,1.567
573.263,1.572
573.536,1.564
573.809,1.542
574.083,1.526
574.356,1.528
574.629,1.549
574.902,1.564
575.175,1.564
575.448,1.548
575.721,1.536
575.995,1.530
576.268,1.529
576.541,1.539
576.814,1.556
577.087,1.574
577.361,1.580
577.634,1.576
577.907,1.562
578.180,1.546
578.453,1.536
578.727,1.537
579.000,1.539
579.273,1.546
579.546,1.560
579.820,1.578
580.093,1.584
580.366,1.578
580.639,1.563
580.913,1.554
581.186,1.548
581.459,1.547
581.732,1.536
582.005,1.531
582.279,1.526
582.552,1.533
582.825,1.538
583.098,1.544
583.372,1.549
583.645,1.553
583.918,1.562
584.191,1.563
584.464,1.559
584.738,1.551
585.011,1.551
585.284,1.548
585.557,1.542
585.831,1.541
586.104,1.556
586.377,1.582
586.650,1.597
586.923,1.599
587.196,1.592
587.470,1.579
587.743,1.570
588.016,1.565
588.289,1.569
588.562,1.580
588.835,1.585
589.109,1.579
589.382,1.562
589.655,1.547
589.928,1.538
590.201,1.532
590.474,1.540
590.747,1.555
591.020,1.572
591.293,1.581
591.567,1.582
591.840,1.575
592.113,1.561
592.386,1.545
592.659,1.530
592.932,1.525
593.205,1.534
593.478,1.539
593.751,1.536
594.024,1.528
594.297,1.518
594.570,1.513
594.843,1.516
595.116,1.527
595.389,1.536
595.662,1.537
595.934,1.546
596.207,1.555
596.480,1.567
596.753,1.571
597.026,1.568
597.299,1.562
597.572,1.556
597.844,1.549
598.117,1.539
598.390,1.530
598.663,1.524
598.936,1.529
599.208,1.540
599.481,1.556
599.754,1.565
600.026,1.552
600.299,1.534
600.572,1.518
600.844,1.507
601.117,1.496
601.390,1.487
601.662,1.490
601.935,1.494
602.207,1.501
602.480,1.513
602.752,1.522
603.025,1.521
603.297,1.516
603.570,1.522
603.842,1.539
604.115,1.550
604.387,1.558
604.660,1.551
604.932,1.544
605.204,1.542
605.477,1.549
605.749,1.565
606.021,1.577
606.294,1.584
606.566,1.578
606.838,1.572
607.110,1.569
607.383,1.575
607.655,1.581
607.927,1.592
608.199,1.600
608.471,1.602
608.743,1.592
609.015,1.581
609.287,1.574
609.559,1.575
609.831,1.581
610.103,1.583
610.375,1.579
610.647,1.571
610.919,1.558
611.191,1.549
611.463,1.548
611.735,1.551
612.007,1.548
612.278,1.539
612.550,1.532
612.822,1.539
613.094,1.549
613.365,1.556
613.637,1.564
613.909,1.566
614.180,1.567
614.452,1.560
614.723,1.548
614.995,1.535
615.266,1.526
615.538,1.536
615.809,1.548
616.081,1.550
616.352,1.539
616.623,1.529
616.895,1.523
617.166,1.517
617.437,1.514
617.709,1.522
617.980,1.539
618.251,1.556
618.522,1.562
618.793,1.569
619.065,1.582
619.336,1.579
619.607,1.564
619.878,1.555
620.149,1.566
620.420,1.576
620.691,1.568
620.962,1.565
621.232,1.568
621.503,1.564
621.774,1.553
622.045,1.547
622.316,1.559
622.586,1.573
622.857,1.588
623.128,1.591
623.398,1.586
623.669,1.576
623.940,1.562
624.210,1.551
624.481,1.552
624.751,1.554
625.021,1.551
625.292,1.539
625.562,1.537
625.833,1.534
626.103,1.527
626.373,1.516
626.643,1.517
626.914,1.529
627.184,1.542
627.454,1.547
627.724,1.549
627.994,1.550
628.264,1.554
628.534,1.544
628.804,1.535
629.074,1.532
629.344,1.543
629.614,1.551
629.884,1.545
630.154,1.529
630.424,1.510
630.693,1.495
630.963,1.482
631.233,1.474
631.502,1.481
631.772,1.499
632.041,1.518
632.311,1.525
632.581,1.526
632.850,1.522
633.119,1.508
633.389,1.486
633.658,1.474
633.928,1.482
634.197,1.506
634.466,1.530
634.735,1.543
635.004,1.538
635.274,1.526
635.543,1.515
635.812,1.515
636.081,1.518
636.350,1.520
636.619,1.520
636.888,1.520
637.157,1.525
637.426,1.537
637.694,1.546
637.963,1.547
638.232,1.534
638.501,1.522
638.769,1.516
639.038,1.524
639.307,1.537
639.575,1.548
639.844,1.542
640.112,1.537
640.381,1.525
640.649,1.523
640.917,1.523
641.186,1.524
641.454,1.527
641.722,1.524
641.991,1.524
642.259,1.510
642.527,1.499
642.795,1.492
643.063,1.489
643.331,1.489
643.599,1.487
643.867,1.497
644.135,1.506
644.403,1.519
644.671,1.525
644.939,1.534
645.206,1.540
645.474,1.544
645.742,1.535
646.009,1.514
646.277,1.503
646.545,1.506
646.812,1.527
647.080,1.545
647.347,1.554
647.615,1.547
647.882,1.529
648.149,1.509
648.417,1.499
648.684,1.498
648.951,1.513
649.219,1.529
649.486,1.538
649.753,1.530
650.020,1.516
650.287,1.504
650.554,1.495
650.821,1.487
651.088,1.484
651.355,1.496
651.622,1.503
651.889,1.506
652.155,1.495
652.422,1.493
652.689,1.504
652.956,1.516
653.222,1.532
653.489,1.552
653.755,1.567
654.022,1.560
654.288,1.535
654.555,1.518
654.821,1.523
655.088,1.537
655.354,1.550
655.620,1.559
655.887,1.563
656.153,1.564
656.419,1.559
656.685,1.554
656.951,1.549
657.217,1.543
657.483,1.534
657.749,1.525
658.015,1.519
658.281,1.515
658.547,1.503
658.813,1.494
659.079,1.488
659.345,1.492
659.610,1.497
659.876,1.500
660.142,1.500
660.407,1.501
660.673,1.505
660.939,1.512
661.204,1.513
661.470,1.508
661.735,1.502
662.000,1.503
662.266,1.502
662.531,1.499
662.796,1.493
663.062,1.488
663.327,1.484
663.592,1.486
663.857,1.490
664.122,1.492
664.388,1.490
664.653,1.498
664.918,1.511
665.183,1.518
665.448,1.518
665.712,1.519
665.977,1.529
666.242,1.535
666.507,1.517
666.772,1.493
667.037,1.475
667.301,1.479
667.566,1.484
667.831,1.492
668.095,1.500
668.360,1.507
668.624,1.502
668.889,1.500
669.153,1.496
669.418,1.501
669.682,1.507
669.946,1.513
670.211,1.529
670.475,1.538
670.739,1.552
671.004,1.561
671.268,1.585
671.532,1.611
671.796,1.599
672.060,1.572
672.324,1.546
672.588,1.557
672.852,1.578
673.116,1.618
673.380,1.655
673.644,1.639
673.908,1.585
674.172,1.527
674.436,1.516
674.700,1.521
674.963,1.531
675.227,1.538
675.491,1.531
675.754,1.523
676.018,1.514
676.282,1.521
676.545,1.521
676.809,1.514
677.072,1.499
677.336,1.488
677.599,1.488
677.863,1.491
678.126,1.501
678.389,1.512
678.653,1.524
678.916,1.528
679.179,1.518
679.442,1.512
679.706,1.514
679.969,1.520
680.232,1.523
680.495,1.530
680.758,1.539
681.021,1.538
681.284,1.521
681.547,1.501
681.810,1.501
682.073,1.523
682.336,1.539
682.599,1.542
682.862,1.534
683.125,1.534
683.388,1.538
683.651,1.533
683.913,1.523
684.176,1.508
684.439,1.492
684.702,1.478
684.964,1.469
685.227,1.472
685.490,1.487
685.752,1.510
686.015,1.521
686.277,1.517
686.540,1.501
686.802,1.487
687.065,1.482
687.327,1.486
687.590,1.495
687.852,1.493
688.115,1.479
688.377,1.471
688.639,1.469
688.902,1.476
689.164,1.483
689.426,1.495
689.689,1.506
689.951,1.505
690.213,1.500
690.475,1.498
690.737,1.498
691.000,1.495
691.262,1.495
691.524,1.505
691.786,1.524
692.048,1.540
692.310,1.537
692.572,1.512
692.834,1.483
693.096,1.474
693.358,1.489
693.620,1.513
693.882,1.534
694.144,1.539
694.406,1.527
694.668,1.517
694.930,1.507
695.192,1.506
695.453,1.509
695.715,1.514
695.977,1.509
696.239,1.496
696.501,1.491
696.762,1.497
697.024,1.505
697.286,1.500
697.548,1.493
697.809,1.488
698.071,1.487
698.333,1.489
698.594,1.491
698.856,1.501
699.118,1.508
699.379,1.514
699.641,1.522
699.902,1.534
700.164,1.535
700.426,1.526
700.687,1.511
700.949,1.505
701.210,1.504
701.472,1.501
701.733,1.495
701.995,1.492
702.256,1.491
702.518,1.492
702.779,1.486
703.041,1.499
703.302,1.517
703.563,1.526
703.825,1.517
704.086,1.504
704.348,1.498
704.609,1.500
704.871,1.512
705.132,1.529
705.393,1.530
705.655,1.524
705.916,1.516
706.177,1.514
706.439,1.514
706.700,1.512
706.961,1.510
707.223,1.508
707.484,1.486
707.745,1.467
708.007,1.447
708.268,1.437
708.529,1.425
708.790,1.410
709.052,1.404
709.313,1.406
709.574,1.415
709.835,1.421
710.097,1.415
710.358,1.399
710.619,1.382
710.881,1.370
711.142,1.364
711.403,1.360
711.664,1.357
711.926,1.351
712.187,1.354
712.448,1.359
712.709,1.372
712.970,1.380
713.232,1.385
713.493,1.387
713.754,1.390
714.015,1.397
714.277,1.406
714.538,1.415
714.799,1.425
715.060,1.428
715.322,1.429
715.583,1.420
715.844,1.409
716.105,1.394
716.367,1.385
716.628,1.384
716.889,1.386
717.150,1.381
717.411,1.372
717.673,1.371
717.934,1.378
718.195,1.386
718.457,1.379
718.718,1.362
718.979,1.352
719.240,1.354
719.502,1.365
719.763,1.373
720.024,1.377
720.286,1.380
720.547,1.375
720.808,1.370
721.069,1.369
721.331,1.376
721.592,1.387
721.853,1.392
722.115,1.397
722.376,1.403
722.638,1.405
722.899,1.405
723.160,1.396
723.422,1.386
723.683,1.376
723.944,1.376
724.206,1.380
724.467,1.384
724.729,1.387
724.990,1.396
725.252,1.403
725.513,1.394
725.775,1.376
726.036,1.364
726.298,1.362
726.559,1.369
726.821,1.370
727.082,1.371
727.344,1.368
727.605,1.367
727.867,1.362
728.128,1.364
728.390,1.366
728.652,1.377
728.913,1.390
729.175,1.398
729.436,1.399
729.698,1.397
729.960,1.394
730.221,1.386
730.483,1.371
730.745,1.364
731.007,1.364
731.268,1.368
731.530,1.374
731.792,1.379
732.054,1.386
732.315,1.387
732.577,1.384
732.839,1.371
733.101,1.356
733.363,1.349
733.625,1.351
733.887,1.357
734.149,1.362
734.411,1.372
734.673,1.382
734.935,1.386
735.197,1.381
735.459,1.382
735.721,1.385
735.983,1.387
736.245,1.377
736.507,1.376
736.769,1.383
737.031,1.394
737.293,1.388
737.555,1.374
737.818,1.357
738.080,1.348
738.342,1.346
738.604,1.350
738.867,1.354
739.129,1.354
739.391,1.352
739.654,1.352
739.916,1.355
740.178,1.363
740.441,1.373
740.703,1.378
740.966,1.373
741.228,1.366
741.491,1.362
741.753,1.365
742.016,1.363
742.278,1.362
742.541,1.365
742.804,1.372
743.066,1.383
743.329,1.386
743.592,1.382
743.854,1.382
744.117,1.387
744.380,1.393
744.643,1.387
744.905,1.377
745.168,1.371
745.431,1.367
745.694,1.362
745.957,1.356
746.220,1.351
746.483,1.344
746.746,1.342
747.009,1.354
747.272,1.376
747.535,1.395
747.798,1.399
748.061,1.389
748.324,1.372
748.588,1.361
748.851,1.358
749.114,1.360
749.377,1.364
749.641,1.365
749.904,1.371
750.167,1.382
750.431,1.395
750.694,1.405
750.958,1.407
751.221,1.399
751.485,1.382
751.748,1.371
752.012,1.375
752.275,1.396
752.539,1.404
752.803,1.398
753.066,1.379
753.330,1.365
753.594,1.359
753.857,1.360
754.121,1.367
754.385,1.377
754.649,1.384
754.913,1.389
755.177,1.392
755.441,1.386
755.705,1.374
755.969,1.359
756.233,1.361
756.497,1.364
756.761,1.365
757.025,1.361
757.289,1.360
757.553,1.361
757.818,1.367
758.082,1.375
758.346,1.383
758.610,1.386
758.875,1.385
759.139,1.377
759.404,1.368
759.668,1.361
759.932,1.365
760.197,1.372
760.462,1.378
760.726,1.377
760.991,1.377
761.255,1.378
761.520,1.377
761.785,1.369
762.049,1.356
762.314,1.349
762.579,1.356
762.844,1.373
763.109,1.385
763.374,1.385
763.639,1.380
763.903,1.375
764.168,1.370
764.433,1.370
764.699,1.380
764.964,1.388
765.229,1.386
765.494,1.374
765.759,1.364
766.024,1.361
766.290,1.365
766.555,1.372
766.820,1.378
767.086,1.380
767.351,1.379
767.616,1.380
767.882,1.380
768.147,1.379
768.413,1.374
768.678,1.367
768.944,1.367
769.209,1.374
769.475,1.381
769.741,1.387
770.006,1.394
770.272,1.402
770.538,1.404
770.804,1.397
771.070,1.390
771.335,1.392
771.601,1.404
771.867,1.411
772.133,1.410
772.399,1.402
772.665,1.390
772.931,1.383
773.197,1.384
773.464,1.394
773.730,1.406
773.996,1.409
774.262,1.411
774.528,1.408
774.795,1.411
775.061,1.417
775.327,1.419
775.594,1.412
775.860,1.395
776.126,1.374
776.393,1.360
776.659,1.357
776.926,1.358
777.193,1.361
777.459,1.363
777.726,1.363
777.992,1.361
778.259,1.359
778.526,1.365
778.793,1.371
779.059,1.378
779.326,1.383
779.593,1.388
779.860,1.393
780.127,1.390
780.394,1.385
780.661,1.380
780.928,1.373
781.195,1.366
781.462,1.359
781.729,1.360
781.996,1.364
782.263,1.368
782.530,1.378
782.797,1.384
783.064,1.384
783.332,1.378
783.599,1.372
783.866,1.373
784.134,1.370
784.401,1.366
784.668,1.364
784.936,1.366
785.203,1.366
785.470,1.357
785.738,1.346
786.005,1.340
786.273,1.339
786.541,1.339
786.808,1.344
787.076,1.349
787.343,1.358
787.611,1.367
787.879,1.381
788.146,1.386
788.414,1.391
788.682,1.385
788.950,1.382
789.217,1.379
789.485,1.388
789.753,1.396
790.021,1.394
790.289,1.378
790.557,1.360
790.825,1.352
791.093,1.358
791.361,1.373
791.629,1.390
791.897,1.398
792.165,1.396
792.433,1.386
792.701,1.367
792.969,1.349
793.237,1.340
793.505,1.350
793.773,1.365
794.042,1.368
794.310,1.364
794.578,1.357
794.846,1.356
795.115,1.357
795.383,1.359
795.651,1.366
795.920,1.369
796.188,1.372
796.456,1.375
796.725,1.379
796.993,1.389
797.261,1.394
797.530,1.393
797.798,1.386
798.067,1.388
798.335,1.398
798.604,1.399
798.872,1.385
799.141,1.370
799.409,1.363
799.678,1.368
799.946,1.376
800.215,1.383
800.483,1.383
800.752,1.379
801.020,1.374
801.289,1.370
801.558,1.372
801.826,1.375
802.095,1.373
802.363,1.368
802.632,1.368
802.901,1.375
803.169,1.380
803.438,1.375
803.707,1.364
803.976,1.350
804.244,1.347
804.513,1.351
804.782,1.351
805.050,1.352
805.319,1.359
805.588,1.373
805.857,1.383
806.125,1.383
806.394,1.376
806.663,1.363
806.931,1.351
807.200,1.345
807.469,1.347
807.738,1.350
808.006,1.353
808.275,1.363
808.544,1.380
808.813,1.391
809.082,1.387
809.350,1.376
809.619,1.371
809.888,1.369
810.157,1.365
810.425,1.359
810.694,1.358
810.963,1.364
811.232,1.361
811.500,1.353
811.769,1.343
812.038,1.346
812.306,1.354
812.575,1.367
812.844,1.373
813.113,1.375
813.381,1.370
813.650,1.370
813.919,1.377
814.187,1.387
814.456,1.392
814.725,1.391
814.993,1.384
815.262,1.382
815.531,1.381
815.799,1.383
816.068,1.375
816.336,1.360
816.605,1.353
816.873,1.357
817.142,1.371
817.411,1.383
817.679,1.385
817.948,1.388
818.216,1.399
818.485,1.433
818.753,1.461
819.021,1.447
819.290,1.403
819.558,1.370
819.827,1.373
820.095,1.386
820.363,1.391
820.632,1.389
820.900,1.384
821.168,1.384
821.437,1.389
821.705,1.392
821.973,1.392
822.241,1.388
822.509,1.385
822.777,1.377
823.046,1.371
823.314,1.373
823.582,1.379
823.850,1.386
824.118,1.389
824.386,1.385
824.654,1.368
824.922,1.352
825.190,1.345
825.457,1.356
825.725,1.369
825.993,1.369
826.261,1.363
826.529,1.358
826.796,1.361
827.064,1.361
827.332,1.363
827.599,1.369
827.867,1.384
828.134,1.392
828.402,1.384
828.669,1.370
828.937,1.361
829.204,1.371
829.471,1.391
829.739,1.404
830.006,1.404
830.273,1.393
830.540,1.380
830.807,1.367
831.075,1.363
831.342,1.369
831.609,1.375
831.876,1.381
832.142,1.386
832.409,1.392
832.676,1.388
832.943,1.373
833.210,1.359
833.476,1.353
833.743,1.360
834.010,1.369
834.276,1.370
834.543,1.363
834.809,1.361
835.076,1.365
835.342,1.366
835.608,1.372
835.874,1.381
836.141,1.386
836.407,1.383
836.673,1.375
836.939,1.373
837.205,1.372
837.471,1.371
837.737,1.371
838.002,1.371
838.268,1.371
838.534,1.376
838.799,1.378
839.065,1.384
839.330,1.386
839.596,1.387
839.861,1.390
840.127,1.394
840.392,1.397
840.657,1.397
840.922,1.402
841.187,1.411
841.452,1.418
841.717,1.418
841.982,1.409
842.247,1.391
842.511,1.373
842.776,1.370
843.041,1.373
843.305,1.370
843.570,1.367
843.834,1.368
844.098,1.368
844.362,1.368
844.627,1.364
844.891,1.362
845.155,1.361
845.419,1.368
845.682,1.377
845.946,1.384
846.210,1.387
846.474,1.387
846.737,1.388
847.001,1.384
847.264,1.373
847.527,1.365
847.790,1.364
848.054,1.368
848.317,1.365
848.580,1.359
848.843,1.360
849.105,1.374
849.368,1.392
849.631,1.401
849.893,1.406
850.156,1.411
850.418,1.411
850.680,1.395
850.943,1.380
851.205,1.377
851.467,1.380
851.729,1.377
851.991,1.374
852.252,1.382
852.514,1.392
852.776,1.397
853.037,1.398
853.298,1.392
853.560,1.382
853.821,1.369
854.082,1.355
854.343,1.354
854.604,1.369
854.865,1.394
855.126,1.411
855.386,1.417
855.647,1.418
855.907,1.411
856.168,1.400
856.428,1.389
856.688,1.384
856.948,1.372
857.208,1.361
857.468,1.357
857.727,1.363
857.987,1.370
858.247,1.378
858.506,1.392
858.765,1.396
859.024,1.384
859.284,1.368
859.543,1.356
859.801,1.354
860.060,1.358
860.319,1.373
860.577,1.388
860.836,1.394
861.094,1.396
861.352,1.397
861.611,1.393
861.869,1.382
862.127,1.375
862.384,1.379
862.642,1.384
862.900,1.395
863.157,1.398
863.414,1.394
863.672,1.378
863.929,1.361
864.186,1.356
864.443,1.360
864.699,1.369
864.956,1.375
865.212,1.371
865.469,1.365
865.725,1.369
865.981,1.381
866.237,1.391
866.493,1.393
866.749,1.381
867.005,1.371
867.260,1.358
867.516,1.352
867.771,1.346
868.026,1.346
868.282,1.360
868.536,1.372
868.791,1.375
869.046,1.366
869.301,1.357
869.555,1.360
869.809,1.375
870.064,1.389
870.318,1.400
870.572,1.408
870.826,1.399
871.079,1.385
871.333,1.372
871.586,1.374
871.840,1.374
872.093,1.371
872.346,1.375
872.599,1.390
872.852,1.408
873.105,1.416
873.357,1.410
873.610,1.396
873.862,1.389
874.114,1.390
874.366,1.396
874.618,1.392
874.870,1.374
875.121,1.357
875.373,1.349
875.624,1.353
875.876,1.354
876.127,1.353
876.378,1.353
876.629,1.353
876.879,1.359
877.130,1.366
877.381,1.366
877.631,1.356
877.881,1.351
878.131,1.361
878.381,1.379
878.631,1.397
878.881,1.404
879.130,1.397
879.380,1.385
879.629,1.375
879.878,1.370
880.127,1.368
880.376,1.373
880.625,1.385
880.873,1.394
881.122,1.400
881.370,1.399
881.618,1.392
881.866,1.381
882.114,1.372
882.362,1.373
882.610,1.381
882.857,1.387
883.105,1.384
883.352,1.371
883.599,1.359
883.846,1.351
884.093,1.351
884.340,1.359
884.586,1.374
884.833,1.387
885.079,1.392
885.325,1.386
885.571,1.381
885.817,1.376
886.063,1.380
886.309,1.387
886.554,1.401
886.800,1.411
887.045,1.414
887.290,1.402
887.535,1.383
887.780,1.376
888.025,1.385
888.270,1.406
888.514,1.422
888.758,1.424
889.003,1.414
889.247,1.390
889.491,1.383
889.735,1.388
889.978,1.404
890.222,1.405
890.465,1.397
890.709,1.387
890.952,1.378
891.195,1.371
891.438,1.367
891.681,1.360
891.923,1.358
892.166,1.362
892.408,1.369
892.651,1.369
892.893,1.364
893.135,1.361
893.377,1.364
893.619,1.369
893.861,1.377
894.102,1.385
894.344,1.399
894.585,1.414
894.826,1.422
895.067,1.410
895.308,1.393
895.549,1.376
895.790,1.366
896.031,1.358
896.271,1.363
896.512,1.376
896.752,1.390
896.992,1.393
897.232,1.388
897.472,1.381
897.712,1.387
897.952,1.399
898.191,1.408
898.431,1.409
898.670,1.409
898.910,1.411
899.149,1.419
899.388,1.425
899.627,1.428
899.866,1.420
900.105,1.404
900.343,1.390
900.582,1.386
900.820,1.394
901.059,1.408
901.297,1.415
901.535,1.400
901.773,1.375
902.011,1.355
902.249,1.345
902.487,1.345
902.725,1.348
902.963,1.359
903.200,1.364
903.438,1.365
903.675,1.368
903.912,1.374
904.150,1.385
904.387,1.387
904.624,1.378
904.861,1.362
905.098,1.353
905.334,1.356
905.571,1.356
905.808,1.359
906.045,1.367
906.281,1.380
906.518,1.387
906.754,1.392
906.990,1.394
907.227,1.388
907.463,1.375
907.699,1.368
907.935,1.374
908.171,1.384
908.407,1.387
908.643,1.385
908.879,1.384
909.115,1.390
909.350,1.394
909.586,1.391
909.822,1.388
910.057,1.396
910.293,1.417
910.528,1.432
910.764,1.433
910.999,1.429
911.235,1.420
911.470,1.420
911.706,1.411
911.941,1.407
912.176,1.396
912.412,1.387
912.647,1.386
912.882,1.392
913.117,1.396
913.352,1.393
913.588,1.387
913.823,1.386
914.058,1.383
914.293,1.380
914.528,1.367
914.763,1.358
914.999,1.353
915.234,1.357
915.469,1.364
915.704,1.367
915.939,1.364
916.174,1.358
916.409,1.358
916.645,1.370
916.880,1.386
917.115,1.399
917.350,1.398
917.586,1.395
917.821,1.392
918.056,1.400
918.292,1.408
918.527,1.406
918.763,1.394
918.998,1.385
919.234,1.394
919.469,1.408
919.705,1.411
919.940,1.402
920.176,1.393
920.412,1.396
920.648,1.398
920.884,1.394
921.120,1.386
921.356,1.380
921.592,1.378
921.828,1.373
922.065,1.376
922.301,1.386
922.537,1.400
922.774,1.404
923.011,1.395
923.247,1.378
923.484,1.371
923.721,1.376
923.958,1.388
924.195,1.392
924.433,1.391
924.670,1.380
924.908,1.367
925.145,1.366
925.383,1.382
925.621,1.398
925.859,1.406
926.097,1.406
926.335,1.403
926.574,1.402
926.813,1.403
927.051,1.404
927.290,1.401
927.529,1.406
927.769,1.420
928.008,1.431
928.248,1.418
928.487,1.401
928.727,1.393
928.967,1.406
929.208,1.415
929.448,1.415
929.689,1.408
929.930,1.396
930.171,1.384
930.413,1.378
930.654,1.378
930.896,1.374
931.138,1.364
931.380,1.353
931.623,1.358
931.865,1.370
932.108,1.384
932.352,1.394
932.595,1.399
932.839,1.405
933.083,1.402
933.327,1.394
933.571,1.380
933.816,1.379
934.061,1.382
934.307,1.384
934.552,1.374
934.798,1.369
935.045,1.368
935.291,1.371
935.538,1.370
935.785,1.371
936.033,1.378
936.281,1.387
936.529,1.393
936.777,1.395
937.026,1.390
937.275,1.386
937.525,1.380
937.775,1.374
938.025,1.365
938.276,1.356
938.527,1.356
938.778,1.356
939.030,1.355
939.282,1.352
939.535,1.355
939.788,1.369
940.041,1.374
940.295,1.372
940.550,1.371
940.804,1.382
941.059,1.393
941.315,1.385
941.571,1.368
941.828,1.355
942.085,1.354
942.342,1.359
942.600,1.363
942.858,1.363
943.117,1.358
943.377,1.355
943.636,1.350
943.897,1.350
944.158,1.358
944.419,1.369
944.681,1.374
944.944,1.377
945.207,1.382
945.470,1.389
945.734,1.393
945.999,1.401
946.264,1.415
946.530,1.422
946.797,1.417
947.064,1.404
947.331,1.393
947.600,1.379
947.869,1.365
948.138,1.355
948.408,1.353
948.679,1.360
948.950,1.371
949.222,1.377
949.495,1.375
949.768,1.375
950.043,1.386
