Wavelength (nm),Intensity Source #116,,C:/Users/Brend/Desktop/LED Spectras v2/Spectrometer Data.sp,,,Source #116,
379.792,1.864,,2018-06-14 10:45:31,,Integration Time,150 ms,
380.000,1.858,,Analyze Light,,Number of Scans to Average,25,
380.209,1.854,,,,Smoothing,1,
380.418,1.868
380.627,1.887
380.837,1.901
381.048,1.908
381.259,1.910
381.471,1.912
381.683,1.920
381.896,1.932
382.110,1.938
382.324,1.945
382.538,1.958
382.753,1.970
382.969,1.962
383.185,1.950
383.402,1.944
383.619,1.960
383.837,1.975
384.055,1.998
384.274,2.016
384.493,2.031
384.712,2.034
384.932,2.034
385.153,2.039
385.374,2.046
385.596,2.053
385.818,2.064
386.040,2.078
386.263,2.094
386.487,2.102
386.710,2.103
386.935,2.093
387.159,2.085
387.385,2.077
387.610,2.078
387.836,2.084
388.063,2.093
388.289,2.103
388.517,2.109
388.744,2.113
388.972,2.126
389.201,2.137
389.430,2.148
389.659,2.151
389.889,2.161
390.119,2.168
390.349,2.175
390.580,2.179
390.811,2.184
391.042,2.188
391.274,2.194
391.507,2.202
391.739,2.204
391.972,2.200
392.205,2.201
392.439,2.213
392.673,2.230
392.907,2.242
393.142,2.253
393.377,2.263
393.612,2.274
393.848,2.281
394.084,2.289
394.320,2.296
394.557,2.307
394.794,2.309
395.031,2.317
395.269,2.327
395.507,2.345
395.745,2.350
395.983,2.351
396.222,2.352
396.461,2.370
396.700,2.386
396.940,2.397
397.180,2.396
397.420,2.392
397.660,2.391
397.901,2.391
398.142,2.396
398.383,2.393
398.625,2.389
398.866,2.394
399.108,2.418
399.351,2.457
399.593,2.472
399.836,2.472
400.079,2.456
400.322,2.449
400.566,2.443
400.809,2.443
401.053,2.449
401.298,2.457
401.542,2.467
401.787,2.481
402.031,2.496
402.277,2.507
402.522,2.511
402.767,2.516
403.013,2.515
403.259,2.520
403.505,2.520
403.752,2.526
403.998,2.527
404.245,2.544
404.492,2.561
404.739,2.572
404.986,2.573
405.234,2.578
405.482,2.584
405.730,2.589
405.978,2.593
406.226,2.599
406.475,2.595
406.723,2.593
406.972,2.594
407.221,2.604
407.470,2.613
407.720,2.623
407.969,2.620
408.219,2.625
408.469,2.633
408.719,2.650
408.969,2.654
409.219,2.660
409.470,2.665
409.720,2.679
409.971,2.692
410.222,2.712
410.473,2.719
410.724,2.721
410.976,2.719
411.227,2.727
411.479,2.730
411.731,2.738
411.983,2.742
412.235,2.752
412.487,2.751
412.740,2.757
412.992,2.763
413.245,2.774
413.497,2.774
413.750,2.776
414.003,2.773
414.257,2.774
414.510,2.775
414.763,2.787
415.017,2.799
415.270,2.809
415.524,2.809
415.778,2.810
416.032,2.808
416.286,2.817
416.540,2.825
416.794,2.837
417.049,2.837
417.303,2.839
417.558,2.842
417.812,2.843
418.067,2.841
418.322,2.839
418.577,2.836
418.832,2.830
419.088,2.818
419.343,2.816
419.598,2.808
419.854,2.809
420.109,2.808
420.365,2.825
420.621,2.834
420.876,2.844
421.132,2.842
421.388,2.837
421.645,2.832
421.901,2.834
422.157,2.842
422.413,2.852
422.670,2.855
422.926,2.858
423.183,2.852
423.439,2.858
423.696,2.869
423.953,2.904
424.210,2.931
424.467,2.946
424.724,2.945
424.981,2.942
425.238,2.947
425.495,2.966
425.753,2.990
426.010,3.016
426.267,3.040
426.525,3.075
426.782,3.110
427.040,3.148
427.298,3.187
427.555,3.238
427.813,3.285
428.071,3.332
428.329,3.377
428.587,3.428
428.845,3.478
429.103,3.532
429.361,3.589
429.619,3.657
429.878,3.724
430.136,3.803
430.394,3.876
430.653,3.969
430.911,4.073
431.170,4.187
431.428,4.291
431.687,4.396
431.946,4.503
432.204,4.628
432.463,4.759
432.722,4.901
432.981,5.044
433.240,5.203
433.499,5.368
433.758,5.545
434.017,5.709
434.276,5.884
434.535,6.064
434.794,6.270
435.053,6.482
435.312,6.706
435.572,6.926
435.831,7.172
436.090,7.433
436.350,7.722
436.609,8.014
436.869,8.314
437.128,8.610
437.388,8.910
437.647,9.231
437.907,9.587
438.166,9.954
438.426,10.326
438.686,10.708
438.946,11.114
439.205,11.538
439.465,11.982
439.725,12.451
439.985,12.936
440.245,13.417
440.505,13.907
440.765,14.408
441.025,14.930
441.285,15.473
441.545,16.044
441.805,16.641
442.065,17.250
442.325,17.877
442.585,18.547
442.846,19.246
443.106,20.000
443.366,20.769
443.626,21.583
443.887,22.406
444.147,23.270
444.407,24.175
444.668,25.123
444.928,26.111
445.189,27.139
445.449,28.216
445.710,29.346
445.970,30.530
446.231,31.783
446.491,33.092
446.752,34.458
447.012,35.877
447.273,37.367
447.534,38.906
447.794,40.498
448.055,42.149
448.316,43.893
448.577,45.732
448.837,47.649
449.098,49.642
449.359,51.681
449.620,53.751
449.881,55.842
450.142,57.974
450.403,60.175
450.664,62.449
450.924,64.763
451.185,67.091
451.446,69.409
451.707,71.731
451.969,74.043
452.230,76.333
452.491,78.568
452.752,80.699
453.013,82.664
453.274,84.368
453.535,85.774
453.796,86.915
454.058,87.875
454.319,88.720
454.580,89.443
454.841,90.065
455.103,90.584
455.364,91.013
455.625,91.363
455.887,91.632
456.148,91.837
456.409,91.970
456.671,92.036
456.932,92.033
457.194,91.964
457.455,91.842
457.716,91.670
457.978,91.444
458.239,91.146
458.501,90.768
458.763,90.314
459.024,89.785
459.286,89.162
459.547,88.438
459.809,87.584
460.071,86.574
460.332,85.350
460.594,83.877
460.856,82.192
461.117,80.353
461.379,78.437
461.641,76.470
461.903,74.488
462.164,72.504
462.426,70.534
462.688,68.586
462.950,66.689
463.212,64.855
463.474,63.076
463.736,61.351
463.998,59.707
464.260,58.162
464.522,56.719
464.784,55.350
465.046,54.048
465.308,52.821
465.570,51.687
465.832,50.635
466.094,49.653
466.356,48.708
466.618,47.800
466.880,46.909
467.142,46.057
467.405,45.251
467.667,44.510
467.929,43.802
468.191,43.125
468.454,42.439
468.716,41.771
468.978,41.076
469.241,40.388
469.503,39.696
469.765,39.026
470.028,38.371
470.290,37.714
470.552,37.064
470.815,36.407
471.077,35.754
471.340,35.087
471.602,34.407
471.865,33.719
472.128,33.028
472.390,32.344
472.653,31.649
472.915,30.952
473.178,30.233
473.441,29.517
473.703,28.778
473.966,28.043
474.229,27.296
474.492,26.561
474.755,25.818
475.017,25.092
475.280,24.397
475.543,23.726
475.806,23.047
476.069,22.349
476.332,21.662
476.595,21.004
476.858,20.364
477.121,19.744
477.384,19.142
477.647,18.572
477.910,18.021
478.173,17.495
478.436,16.986
478.699,16.500
478.962,16.029
479.226,15.580
479.489,15.143
479.752,14.727
480.015,14.315
480.279,13.918
480.542,13.529
480.805,13.169
481.069,12.817
481.332,12.486
481.595,12.171
481.859,11.894
482.122,11.620
482.386,11.341
482.649,11.049
482.913,10.775
483.177,10.512
483.440,10.263
483.704,10.024
483.967,9.814
484.231,9.618
484.495,9.425
484.759,9.225
485.022,9.017
485.286,8.811
485.550,8.607
485.814,8.396
486.078,8.198
486.342,8.002
486.606,7.827
486.869,7.647
487.133,7.479
487.397,7.313
487.662,7.153
487.926,6.975
488.190,6.802
488.454,6.619
488.718,6.450
488.982,6.267
489.246,6.105
489.511,5.937
489.775,5.778
490.039,5.612
490.304,5.453
490.568,5.292
490.832,5.148
491.097,5.015
491.361,4.899
491.626,4.765
491.890,4.632
492.155,4.498
492.419,4.387
492.684,4.264
492.949,4.141
493.213,4.020
493.478,3.922
493.743,3.820
494.008,3.704
494.272,3.584
494.537,3.492
494.802,3.415
495.067,3.350
495.332,3.281
495.597,3.222
495.862,3.154
496.127,3.089
496.392,3.011
496.657,2.940
496.922,2.868
497.187,2.811
497.452,2.764
497.718,2.736
497.983,2.700
498.248,2.655
498.513,2.596
498.779,2.559
499.044,2.533
499.310,2.500
499.575,2.451
499.841,2.406
500.106,2.374
500.372,2.343
500.637,2.316
500.903,2.305
501.168,2.294
501.434,2.272
501.700,2.230
501.966,2.199
502.231,2.170
502.497,2.146
502.763,2.111
503.029,2.082
503.295,2.060
503.561,2.045
503.827,2.033
504.093,2.022
504.359,2.008
504.625,1.994
504.891,1.973
505.157,1.957
505.423,1.931
505.690,1.903
505.956,1.876
506.222,1.865
506.489,1.874
506.755,1.885
507.021,1.889
507.288,1.886
507.554,1.873
507.821,1.858
508.087,1.843
508.354,1.842
508.621,1.834
508.887,1.818
509.154,1.798
509.421,1.787
509.687,1.777
509.954,1.764
510.221,1.751
510.488,1.750
510.755,1.751
511.022,1.754
511.289,1.744
511.556,1.733
511.823,1.723
512.090,1.725
512.357,1.719
512.624,1.707
512.891,1.689
513.159,1.675
513.426,1.664
513.693,1.658
513.960,1.656
514.228,1.656
514.495,1.654
514.763,1.653
515.030,1.649
515.298,1.642
515.565,1.636
515.833,1.633
516.100,1.627
516.368,1.621
516.636,1.613
516.904,1.613
517.171,1.607
517.439,1.605
517.707,1.599
517.975,1.599
518.243,1.601
518.511,1.601
518.779,1.585
519.047,1.577
519.315,1.572
519.583,1.567
519.851,1.551
520.119,1.539
520.387,1.537
520.656,1.539
520.924,1.547
521.192,1.558
521.461,1.563
521.729,1.564
521.997,1.564
522.266,1.565
522.534,1.565
522.803,1.569
523.071,1.565
523.340,1.547
523.609,1.521
523.877,1.505
524.146,1.500
524.415,1.501
524.684,1.502
524.952,1.500
525.221,1.499
525.490,1.507
525.759,1.521
526.028,1.523
526.297,1.511
526.566,1.498
526.835,1.490
527.104,1.490
527.373,1.492
527.642,1.491
527.912,1.483
528.181,1.473
528.450,1.473
528.719,1.482
528.989,1.498
529.258,1.514
529.528,1.522
529.797,1.520
530.067,1.515
530.336,1.509
530.606,1.499
530.875,1.485
531.145,1.477
531.414,1.482
531.684,1.490
531.954,1.490
532.224,1.481
532.493,1.467
532.763,1.459
533.033,1.459
533.303,1.463
533.573,1.468
533.843,1.463
534.113,1.463
534.383,1.457
534.653,1.458
534.923,1.460
535.193,1.466
535.463,1.479
535.733,1.490
536.004,1.501
536.274,1.500
536.544,1.489
536.814,1.473
537.085,1.463
537.355,1.467
537.626,1.485
537.896,1.497
538.166,1.498
538.437,1.492
538.707,1.486
538.978,1.486
539.249,1.491
539.519,1.495
539.790,1.489
540.061,1.486
540.331,1.494
540.602,1.512
540.873,1.527
541.144,1.531
541.414,1.527
541.685,1.517
541.956,1.510
542.227,1.505
542.498,1.497
542.769,1.493
543.040,1.497
543.311,1.515
543.582,1.532
543.853,1.539
544.124,1.540
544.396,1.543
544.667,1.547
544.938,1.542
545.209,1.513
545.480,1.487
545.752,1.471
546.023,1.480
546.294,1.479
546.566,1.474
546.837,1.461
547.109,1.455
547.380,1.452
547.652,1.451
547.923,1.450
548.195,1.460
548.466,1.479
548.738,1.495
549.009,1.491
549.281,1.478
549.553,1.456
549.824,1.439
550.096,1.429
550.368,1.428
550.640,1.433
550.911,1.439
551.183,1.453
551.455,1.474
551.727,1.490
551.999,1.486
552.271,1.471
552.543,1.459
552.815,1.457
553.087,1.468
553.359,1.479
553.631,1.484
553.903,1.479
554.175,1.478
554.447,1.483
554.719,1.487
554.991,1.483
555.263,1.474
555.535,1.463
555.808,1.455
556.080,1.447
556.352,1.443
556.624,1.441
556.897,1.437
557.169,1.434
557.441,1.428
557.714,1.428
557.986,1.430
558.258,1.430
558.531,1.436
558.803,1.439
559.076,1.442
559.348,1.436
559.621,1.431
559.893,1.432
560.166,1.437
560.438,1.438
560.711,1.432
560.983,1.426
561.256,1.425
561.528,1.433
561.801,1.442
562.074,1.452
562.346,1.462
562.619,1.471
562.892,1.472
563.164,1.467
563.437,1.464
563.710,1.456
563.983,1.442
564.255,1.427
564.528,1.432
564.801,1.447
565.074,1.456
565.346,1.447
565.619,1.441
565.892,1.446
566.165,1.447
566.438,1.436
566.711,1.422
566.984,1.417
567.257,1.421
567.529,1.432
567.802,1.450
568.075,1.462
568.348,1.458
568.621,1.448
568.894,1.440
569.167,1.440
569.440,1.435
569.713,1.424
569.986,1.418
570.259,1.416
570.532,1.425
570.805,1.433
571.078,1.436
571.351,1.437
571.625,1.438
571.898,1.434
572.171,1.425
572.444,1.416
572.717,1.420
572.990,1.429
573.263,1.428
573.536,1.418
573.809,1.405
574.083,1.400
574.356,1.406
574.629,1.421
574.902,1.432
575.175,1.433
575.448,1.422
575.721,1.411
575.995,1.402
576.268,1.401
576.541,1.409
576.814,1.421
577.087,1.431
577.361,1.435
577.634,1.436
577.907,1.427
578.180,1.415
578.453,1.407
578.727,1.408
579.000,1.413
579.273,1.419
579.546,1.430
579.820,1.443
580.093,1.445
580.366,1.433
580.639,1.416
580.913,1.411
581.186,1.413
581.459,1.417
581.732,1.411
582.005,1.404
582.279,1.399
582.552,1.404
582.825,1.410
583.098,1.415
583.372,1.418
583.645,1.421
583.918,1.424
584.191,1.424
584.464,1.423
584.738,1.424
585.011,1.426
585.284,1.426
585.557,1.424
585.831,1.425
586.104,1.436
586.377,1.455
586.650,1.466
586.923,1.464
587.196,1.450
587.470,1.433
587.743,1.420
588.016,1.414
588.289,1.419
588.562,1.430
588.835,1.433
589.109,1.426
589.382,1.414
589.655,1.408
589.928,1.404
590.201,1.404
590.474,1.413
590.747,1.425
591.020,1.435
591.293,1.437
591.567,1.436
591.840,1.430
592.113,1.421
592.386,1.409
592.659,1.399
592.932,1.397
593.205,1.408
593.478,1.417
593.751,1.418
594.024,1.411
594.297,1.406
594.570,1.407
594.843,1.417
595.116,1.427
595.389,1.428
595.662,1.420
595.934,1.415
596.207,1.419
596.480,1.429
596.753,1.437
597.026,1.438
597.299,1.434
597.572,1.428
597.844,1.421
598.117,1.411
598.390,1.406
598.663,1.404
598.936,1.407
599.208,1.409
599.481,1.413
599.754,1.415
600.026,1.406
600.299,1.394
600.572,1.388
600.844,1.392
601.117,1.391
601.390,1.385
601.662,1.380
601.935,1.380
602.207,1.385
602.480,1.393
602.752,1.400
603.025,1.396
603.297,1.392
603.570,1.398
603.842,1.412
604.115,1.422
604.387,1.423
604.660,1.416
604.932,1.410
605.204,1.411
605.477,1.424
605.749,1.439
606.021,1.453
606.294,1.455
606.566,1.445
606.838,1.436
607.110,1.433
607.383,1.439
607.655,1.443
607.927,1.451
608.199,1.460
608.471,1.465
608.743,1.458
609.015,1.448
609.287,1.441
609.559,1.443
609.831,1.449
610.103,1.451
610.375,1.447
610.647,1.436
610.919,1.428
611.191,1.426
611.463,1.429
611.735,1.430
612.007,1.424
612.278,1.417
612.550,1.411
612.822,1.416
613.094,1.420
613.365,1.422
613.637,1.424
613.909,1.425
614.180,1.427
614.452,1.423
614.723,1.416
614.995,1.406
615.266,1.404
615.538,1.411
615.809,1.424
616.081,1.424
616.352,1.418
616.623,1.414
616.895,1.414
617.166,1.411
617.437,1.407
617.709,1.411
617.980,1.419
618.251,1.429
618.522,1.437
618.793,1.448
619.065,1.459
619.336,1.449
619.607,1.432
619.878,1.423
620.149,1.431
620.420,1.436
620.691,1.431
620.962,1.428
621.232,1.432
621.503,1.426
621.774,1.418
622.045,1.413
622.316,1.424
622.586,1.438
622.857,1.450
623.128,1.451
623.398,1.445
623.669,1.437
623.940,1.424
624.210,1.412
624.481,1.413
624.751,1.420
625.021,1.422
625.292,1.414
625.562,1.409
625.833,1.407
626.103,1.404
626.373,1.396
626.643,1.394
626.914,1.397
627.184,1.404
627.454,1.408
627.724,1.409
627.994,1.411
628.264,1.413
628.534,1.410
628.804,1.404
629.074,1.404
629.344,1.408
629.614,1.406
629.884,1.395
630.154,1.383
630.424,1.376
630.693,1.368
630.963,1.361
631.233,1.355
631.502,1.359
631.772,1.375
632.041,1.392
632.311,1.401
632.581,1.404
632.850,1.403
633.119,1.393
633.389,1.377
633.658,1.366
633.928,1.369
634.197,1.380
634.466,1.395
634.735,1.406
635.004,1.404
635.274,1.396
635.543,1.386
635.812,1.387
636.081,1.388
636.350,1.391
636.619,1.392
636.888,1.394
637.157,1.397
637.426,1.401
637.694,1.399
637.963,1.390
638.232,1.379
638.501,1.376
638.769,1.383
639.038,1.395
639.307,1.408
639.575,1.414
639.844,1.410
640.112,1.402
640.381,1.391
640.649,1.390
640.917,1.395
641.186,1.399
641.454,1.402
641.722,1.399
641.991,1.396
642.259,1.387
642.527,1.382
642.795,1.377
643.063,1.370
643.331,1.364
643.599,1.365
643.867,1.377
644.135,1.386
644.403,1.396
644.671,1.400
644.939,1.408
645.206,1.414
645.474,1.420
645.742,1.413
646.009,1.398
646.277,1.389
646.545,1.389
646.812,1.401
647.080,1.410
647.347,1.416
647.615,1.412
647.882,1.399
648.149,1.387
648.417,1.379
648.684,1.383
648.951,1.393
649.219,1.400
649.486,1.400
649.753,1.395
650.020,1.386
650.287,1.381
650.554,1.377
650.821,1.375
651.088,1.379
651.355,1.390
651.622,1.397
651.889,1.401
652.155,1.393
652.422,1.389
652.689,1.390
652.956,1.395
653.222,1.404
653.489,1.418
653.755,1.429
654.022,1.425
654.288,1.405
654.555,1.392
654.821,1.392
655.088,1.399
655.354,1.408
655.620,1.415
655.887,1.419
656.153,1.419
656.419,1.416
656.685,1.413
656.951,1.413
657.217,1.412
657.483,1.407
657.749,1.399
658.015,1.393
658.281,1.392
658.547,1.389
658.813,1.382
659.079,1.377
659.345,1.372
659.610,1.369
659.876,1.367
660.142,1.368
660.407,1.372
660.673,1.379
660.939,1.384
661.204,1.383
661.470,1.381
661.735,1.378
662.000,1.381
662.266,1.379
662.531,1.377
662.796,1.373
663.062,1.372
663.327,1.370
663.592,1.371
663.857,1.370
664.122,1.369
664.388,1.369
664.653,1.376
664.918,1.384
665.183,1.389
665.448,1.394
665.712,1.398
665.977,1.403
666.242,1.402
666.507,1.387
666.772,1.370
667.037,1.356
667.301,1.357
667.566,1.362
667.831,1.371
668.095,1.377
668.360,1.379
668.624,1.373
668.889,1.377
669.153,1.382
669.418,1.388
669.682,1.388
669.946,1.390
670.211,1.396
670.475,1.401
670.739,1.411
671.004,1.425
671.268,1.453
671.532,1.478
671.796,1.469
672.060,1.449
672.324,1.431
672.588,1.440
672.852,1.452
673.116,1.487
673.380,1.517
673.644,1.493
673.908,1.441
674.172,1.394
674.436,1.394
674.700,1.396
674.963,1.398
675.227,1.400
675.491,1.397
675.754,1.394
676.018,1.391
676.282,1.396
676.545,1.397
676.809,1.390
677.072,1.375
677.336,1.365
677.599,1.366
677.863,1.368
678.126,1.372
678.389,1.381
678.653,1.391
678.916,1.392
679.179,1.380
679.442,1.373
679.706,1.376
679.969,1.382
680.232,1.388
680.495,1.398
680.758,1.409
681.021,1.408
681.284,1.397
681.547,1.387
681.810,1.393
682.073,1.407
682.336,1.418
682.599,1.413
682.862,1.403
683.125,1.397
683.388,1.402
683.651,1.404
683.913,1.399
684.176,1.389
684.439,1.375
684.702,1.364
684.964,1.360
685.227,1.366
685.490,1.381
685.752,1.394
686.015,1.398
686.277,1.393
686.540,1.382
686.802,1.370
687.065,1.368
687.327,1.375
687.590,1.383
687.852,1.380
688.115,1.368
688.377,1.362
688.639,1.365
688.902,1.373
689.164,1.382
689.426,1.394
689.689,1.403
689.951,1.402
690.213,1.396
690.475,1.390
690.737,1.384
691.000,1.373
691.262,1.366
691.524,1.369
691.786,1.384
692.048,1.398
692.310,1.398
692.572,1.382
692.834,1.366
693.096,1.364
693.358,1.379
693.620,1.400
693.882,1.415
694.144,1.418
694.406,1.411
694.668,1.405
694.930,1.400
695.192,1.396
695.453,1.395
695.715,1.393
695.977,1.388
696.239,1.376
696.501,1.371
696.762,1.376
697.024,1.380
697.286,1.375
697.548,1.368
697.809,1.367
698.071,1.366
698.333,1.365
698.594,1.365
698.856,1.372
699.118,1.382
699.379,1.390
699.641,1.396
699.902,1.402
700.164,1.405
700.426,1.400
700.687,1.392
700.949,1.386
701.210,1.385
701.472,1.381
701.733,1.371
701.995,1.368
702.256,1.371
702.518,1.373
702.779,1.370
703.041,1.377
703.302,1.392
703.563,1.399
703.825,1.394
704.086,1.387
704.348,1.386
704.609,1.387
704.871,1.396
705.132,1.406
705.393,1.405
705.655,1.397
705.916,1.390
706.177,1.390
706.439,1.391
706.700,1.390
706.961,1.390
707.223,1.387
707.484,1.370
707.745,1.354
708.007,1.341
708.268,1.336
708.529,1.327
708.790,1.311
709.052,1.298
709.313,1.297
709.574,1.303
709.835,1.310
710.097,1.305
710.358,1.291
710.619,1.277
710.881,1.270
711.142,1.269
711.403,1.269
711.664,1.266
711.926,1.259
712.187,1.259
712.448,1.264
712.709,1.276
712.970,1.286
713.232,1.292
713.493,1.297
713.754,1.298
714.015,1.301
714.277,1.308
714.538,1.317
714.799,1.327
715.060,1.331
715.322,1.330
715.583,1.320
715.844,1.307
716.105,1.292
716.367,1.282
716.628,1.281
716.889,1.284
717.150,1.282
717.411,1.274
717.673,1.273
717.934,1.282
718.195,1.293
718.457,1.289
718.718,1.277
718.979,1.269
719.240,1.271
719.502,1.281
719.763,1.293
720.024,1.299
720.286,1.300
720.547,1.292
720.808,1.287
721.069,1.285
721.331,1.291
721.592,1.299
721.853,1.302
722.115,1.300
722.376,1.299
722.638,1.297
722.899,1.299
723.160,1.293
723.422,1.287
723.683,1.281
723.944,1.284
724.206,1.287
724.467,1.290
724.729,1.291
724.990,1.298
725.252,1.306
725.513,1.301
725.775,1.283
726.036,1.268
726.298,1.266
726.559,1.275
726.821,1.280
727.082,1.281
727.344,1.279
727.605,1.277
727.867,1.271
728.128,1.272
728.390,1.274
728.652,1.285
728.913,1.297
729.175,1.307
729.436,1.312
729.698,1.313
729.960,1.313
730.221,1.308
730.483,1.295
730.745,1.289
731.007,1.288
731.268,1.287
731.530,1.286
731.792,1.288
732.054,1.297
732.315,1.304
732.577,1.307
732.839,1.302
733.101,1.295
733.363,1.288
733.625,1.286
733.887,1.286
734.149,1.288
734.411,1.293
734.673,1.297
734.935,1.298
735.197,1.294
735.459,1.295
735.721,1.295
735.983,1.295
736.245,1.285
736.507,1.284
736.769,1.287
737.031,1.294
737.293,1.287
737.555,1.276
737.818,1.269
738.080,1.268
738.342,1.269
738.604,1.268
738.867,1.267
739.129,1.265
739.391,1.264
739.654,1.266
739.916,1.269
740.178,1.272
740.441,1.277
740.703,1.279
740.966,1.276
741.228,1.271
741.491,1.268
741.753,1.269
742.016,1.269
742.278,1.268
742.541,1.271
742.804,1.277
743.066,1.288
743.329,1.293
743.592,1.293
743.854,1.294
744.117,1.298
744.380,1.304
744.643,1.297
744.905,1.286
745.168,1.276
745.431,1.273
745.694,1.270
745.957,1.268
746.220,1.265
746.483,1.262
746.746,1.260
747.009,1.269
747.272,1.287
747.535,1.304
747.798,1.307
748.061,1.298
748.324,1.284
748.588,1.277
748.851,1.274
749.114,1.277
749.377,1.282
749.641,1.285
749.904,1.291
750.167,1.297
750.431,1.303
750.694,1.307
750.958,1.311
751.221,1.304
751.485,1.288
751.748,1.276
752.012,1.280
752.275,1.298
752.539,1.303
752.803,1.296
753.066,1.280
753.330,1.269
753.594,1.263
753.857,1.264
754.121,1.273
754.385,1.283
754.649,1.290
754.913,1.295
755.177,1.299
755.441,1.295
755.705,1.284
755.969,1.272
756.233,1.277
756.497,1.285
756.761,1.290
757.025,1.286
757.289,1.283
757.553,1.282
757.818,1.284
758.082,1.287
758.346,1.288
758.610,1.289
758.875,1.289
759.139,1.288
759.404,1.281
759.668,1.277
759.932,1.278
760.197,1.291
760.462,1.300
760.726,1.303
760.991,1.299
761.255,1.297
761.520,1.296
761.785,1.288
762.049,1.274
762.314,1.268
762.579,1.274
762.844,1.287
763.109,1.292
763.374,1.289
763.639,1.285
763.903,1.281
764.168,1.276
764.433,1.275
764.699,1.284
764.964,1.295
765.229,1.294
765.494,1.284
765.759,1.275
766.024,1.272
766.290,1.277
766.555,1.284
766.820,1.291
767.086,1.296
767.351,1.297
767.616,1.296
767.882,1.291
768.147,1.283
768.413,1.272
768.678,1.263
768.944,1.263
769.209,1.270
769.475,1.283
769.741,1.295
770.006,1.304
770.272,1.307
770.538,1.307
770.804,1.304
771.070,1.302
771.335,1.307
771.601,1.317
771.867,1.320
772.133,1.314
772.399,1.304
772.665,1.293
772.931,1.290
773.197,1.295
773.464,1.303
773.730,1.309
773.996,1.312
774.262,1.315
774.528,1.312
774.795,1.311
775.061,1.313
775.327,1.316
775.594,1.310
775.860,1.298
776.126,1.285
776.393,1.276
776.659,1.270
776.926,1.267
777.193,1.267
777.459,1.265
777.726,1.262
777.992,1.260
778.259,1.260
778.526,1.269
778.793,1.277
779.059,1.284
779.326,1.290
779.593,1.292
779.860,1.297
780.127,1.295
780.394,1.298
780.661,1.298
780.928,1.294
781.195,1.283
781.462,1.273
781.729,1.275
781.996,1.280
782.263,1.286
782.530,1.295
782.797,1.300
783.064,1.297
783.332,1.287
783.599,1.280
783.866,1.280
784.134,1.278
784.401,1.279
784.668,1.280
784.936,1.283
785.203,1.282
785.470,1.278
785.738,1.277
786.005,1.277
786.273,1.275
786.541,1.270
786.808,1.269
787.076,1.270
787.343,1.273
787.611,1.281
787.879,1.289
788.146,1.293
788.414,1.296
788.682,1.294
788.950,1.292
789.217,1.288
789.485,1.293
789.753,1.299
790.021,1.293
790.289,1.276
790.557,1.258
790.825,1.252
791.093,1.262
791.361,1.282
791.629,1.300
791.897,1.306
792.165,1.303
792.433,1.293
792.701,1.275
792.969,1.258
793.237,1.250
793.505,1.257
793.773,1.269
794.042,1.271
794.310,1.269
794.578,1.266
794.846,1.267
795.115,1.266
795.383,1.265
795.651,1.273
795.920,1.280
796.188,1.288
796.456,1.296
796.725,1.300
796.993,1.308
797.261,1.308
797.530,1.305
797.798,1.297
798.067,1.296
798.335,1.300
798.604,1.297
798.872,1.281
799.141,1.267
799.409,1.264
799.678,1.271
799.946,1.283
800.215,1.291
800.483,1.292
800.752,1.289
801.020,1.282
801.289,1.276
801.558,1.273
801.826,1.275
802.095,1.275
802.363,1.275
802.632,1.276
802.901,1.284
803.169,1.289
803.438,1.288
803.707,1.278
803.976,1.265
804.244,1.261
804.513,1.263
804.782,1.262
805.050,1.262
805.319,1.270
805.588,1.285
805.857,1.298
806.125,1.301
806.394,1.297
806.663,1.285
806.931,1.274
807.200,1.269
807.469,1.270
807.738,1.269
808.006,1.269
808.275,1.276
808.544,1.290
808.813,1.300
809.082,1.298
809.350,1.290
809.619,1.288
809.888,1.287
810.157,1.284
810.425,1.276
810.694,1.272
810.963,1.272
811.232,1.268
811.500,1.261
811.769,1.253
812.038,1.258
812.306,1.269
812.575,1.283
812.844,1.288
813.113,1.289
813.381,1.284
813.650,1.287
813.919,1.297
814.187,1.308
814.456,1.314
814.725,1.316
814.993,1.312
815.262,1.308
815.531,1.303
815.799,1.300
816.068,1.287
816.336,1.274
816.605,1.269
816.873,1.275
817.142,1.286
817.411,1.296
817.679,1.302
817.948,1.311
818.216,1.324
818.485,1.351
818.753,1.370
819.021,1.353
819.290,1.312
819.558,1.283
819.827,1.284
820.095,1.293
820.363,1.293
820.632,1.286
820.900,1.280
821.168,1.281
821.437,1.287
821.705,1.295
821.973,1.299
822.241,1.302
822.509,1.303
822.777,1.298
823.046,1.292
823.314,1.294
823.582,1.302
823.850,1.306
824.118,1.306
824.386,1.298
824.654,1.280
824.922,1.260
825.190,1.251
825.457,1.263
825.725,1.279
825.993,1.281
826.261,1.276
826.529,1.272
826.796,1.272
827.064,1.271
827.332,1.270
827.599,1.278
827.867,1.292
828.134,1.298
828.402,1.290
828.669,1.276
828.937,1.270
829.204,1.282
829.471,1.299
829.739,1.310
830.006,1.309
830.273,1.295
830.540,1.281
830.807,1.267
831.075,1.264
831.342,1.270
831.609,1.279
831.876,1.286
832.142,1.291
832.409,1.296
832.676,1.291
832.943,1.277
833.210,1.265
833.476,1.263
833.743,1.271
834.010,1.281
834.276,1.277
834.543,1.270
834.809,1.269
835.076,1.272
835.342,1.276
835.608,1.285
835.874,1.293
836.141,1.295
836.407,1.288
836.673,1.280
836.939,1.277
837.205,1.272
837.471,1.271
837.737,1.273
838.002,1.273
838.268,1.272
838.534,1.270
838.799,1.271
839.065,1.277
839.330,1.282
839.596,1.285
839.861,1.286
840.127,1.292
840.392,1.298
840.657,1.302
840.922,1.307
841.187,1.310
841.452,1.312
841.717,1.313
841.982,1.310
842.247,1.298
842.511,1.289
842.776,1.287
843.041,1.291
843.305,1.283
843.570,1.275
843.834,1.271
844.098,1.272
844.362,1.273
844.627,1.270
844.891,1.271
845.155,1.275
845.419,1.286
845.682,1.293
845.946,1.296
846.210,1.301
846.474,1.302
846.737,1.304
847.001,1.296
847.264,1.284
847.527,1.274
847.790,1.275
848.054,1.280
848.317,1.276
848.580,1.269
848.843,1.270
849.105,1.283
849.368,1.298
849.631,1.306
849.893,1.311
850.156,1.319
850.418,1.321
850.680,1.307
850.943,1.292
851.205,1.289
851.467,1.290
851.729,1.284
851.991,1.279
852.252,1.287
852.514,1.300
852.776,1.309
853.037,1.312
853.298,1.309
853.560,1.298
853.821,1.281
854.082,1.266
854.343,1.268
854.604,1.285
854.865,1.312
855.126,1.326
855.386,1.331
855.647,1.326
855.907,1.316
856.168,1.299
856.428,1.284
856.688,1.278
856.948,1.270
857.208,1.264
857.468,1.266
857.727,1.275
857.987,1.284
858.247,1.289
858.506,1.298
858.765,1.303
859.024,1.297
859.284,1.284
859.543,1.270
859.801,1.264
860.060,1.265
860.319,1.279
860.577,1.294
860.836,1.304
861.094,1.308
861.352,1.306
861.611,1.295
861.869,1.279
862.127,1.269
862.384,1.274
862.642,1.281
862.900,1.291
863.157,1.296
863.414,1.293
863.672,1.281
863.929,1.266
864.186,1.265
864.443,1.270
864.699,1.280
864.956,1.283
865.212,1.273
865.469,1.268
865.725,1.275
865.981,1.290
866.237,1.298
866.493,1.296
866.749,1.283
867.005,1.271
867.260,1.262
867.516,1.261
867.771,1.257
868.026,1.258
868.282,1.270
868.536,1.282
868.791,1.283
869.046,1.274
869.301,1.266
869.555,1.268
869.809,1.281
870.064,1.293
870.318,1.303
870.572,1.306
870.826,1.294
871.079,1.279
871.333,1.268
871.586,1.270
871.840,1.273
872.093,1.274
872.346,1.281
872.599,1.293
872.852,1.306
873.105,1.314
873.357,1.310
873.610,1.298
873.862,1.293
874.114,1.296
874.366,1.302
874.618,1.297
874.870,1.281
875.121,1.268
875.373,1.261
875.624,1.267
875.876,1.268
876.127,1.267
876.378,1.262
876.629,1.264
876.879,1.273
877.130,1.279
877.381,1.276
877.631,1.264
877.881,1.261
878.131,1.271
878.381,1.288
878.631,1.304
878.881,1.310
879.130,1.308
879.380,1.298
879.629,1.289
879.878,1.278
880.127,1.272
880.376,1.271
880.625,1.281
880.873,1.293
881.122,1.304
881.370,1.305
881.618,1.296
881.866,1.284
882.114,1.276
882.362,1.278
882.610,1.286
882.857,1.292
883.105,1.293
883.352,1.284
883.599,1.273
883.846,1.264
884.093,1.263
884.340,1.269
884.586,1.280
884.833,1.288
885.079,1.290
885.325,1.285
885.571,1.283
885.817,1.282
886.063,1.289
886.309,1.295
886.554,1.308
886.800,1.314
887.045,1.315
887.290,1.302
887.535,1.286
887.780,1.279
888.025,1.287
888.270,1.305
888.514,1.322
888.758,1.325
889.003,1.316
889.247,1.297
889.491,1.292
889.735,1.296
889.978,1.306
890.222,1.304
890.465,1.299
890.709,1.290
890.952,1.280
891.195,1.273
891.438,1.272
891.681,1.270
891.923,1.269
892.166,1.272
892.408,1.277
892.651,1.273
892.893,1.265
893.135,1.262
893.377,1.266
893.619,1.271
893.861,1.280
894.102,1.291
894.344,1.309
894.585,1.325
894.826,1.331
895.067,1.319
895.308,1.305
895.549,1.291
895.790,1.285
896.031,1.277
896.271,1.282
896.512,1.294
896.752,1.306
896.992,1.304
897.232,1.294
897.472,1.288
897.712,1.298
897.952,1.316
898.191,1.322
898.431,1.315
898.670,1.310
898.910,1.313
899.149,1.323
899.388,1.327
899.627,1.327
899.866,1.316
900.105,1.302
900.343,1.294
900.582,1.296
900.820,1.306
901.059,1.322
901.297,1.330
901.535,1.317
901.773,1.291
902.011,1.267
902.249,1.253
902.487,1.250
902.725,1.255
902.963,1.265
903.200,1.267
903.438,1.266
903.675,1.270
903.912,1.281
904.150,1.293
904.387,1.296
904.624,1.284
904.861,1.270
905.098,1.262
905.334,1.266
905.571,1.266
905.808,1.270
906.045,1.279
906.281,1.289
906.518,1.293
906.754,1.296
906.990,1.299
907.227,1.296
907.463,1.285
907.699,1.280
907.935,1.286
908.171,1.298
908.407,1.301
908.643,1.300
908.879,1.298
909.115,1.302
909.350,1.304
909.586,1.302
909.822,1.299
910.057,1.306
910.293,1.324
910.528,1.335
910.764,1.335
910.999,1.333
911.235,1.328
911.470,1.328
911.706,1.318
911.941,1.315
912.176,1.306
912.412,1.295
912.647,1.290
912.882,1.294
913.117,1.300
913.352,1.298
913.588,1.290
913.823,1.283
914.058,1.280
914.293,1.282
914.528,1.280
914.763,1.274
914.999,1.269
915.234,1.270
915.469,1.276
915.704,1.279
915.939,1.277
916.174,1.269
916.409,1.268
916.645,1.278
916.880,1.290
917.115,1.296
917.350,1.290
917.586,1.285
917.821,1.285
918.056,1.296
918.292,1.308
918.527,1.310
918.763,1.301
918.998,1.292
919.234,1.299
919.469,1.313
919.705,1.321
919.940,1.315
920.176,1.304
920.412,1.303
920.648,1.302
920.884,1.302
921.120,1.295
921.356,1.289
921.592,1.283
921.828,1.278
922.065,1.281
922.301,1.292
922.537,1.306
922.774,1.311
923.011,1.304
923.247,1.292
923.484,1.289
923.721,1.297
923.958,1.306
924.195,1.307
924.433,1.300
924.670,1.287
924.908,1.274
925.145,1.274
925.383,1.287
925.621,1.300
925.859,1.307
926.097,1.309
926.335,1.310
926.574,1.312
926.813,1.311
927.051,1.307
927.290,1.302
927.529,1.312
927.769,1.331
928.008,1.342
928.248,1.329
928.487,1.309
928.727,1.301
928.967,1.311
929.208,1.320
929.448,1.317
929.689,1.307
929.930,1.295
930.171,1.285
930.413,1.281
930.654,1.281
930.896,1.277
931.138,1.270
931.380,1.264
931.623,1.273
931.865,1.289
932.108,1.301
932.352,1.306
932.595,1.307
932.839,1.310
933.083,1.305
933.327,1.295
933.571,1.284
933.816,1.285
934.061,1.291
934.307,1.292
934.552,1.283
934.798,1.277
935.045,1.277
935.291,1.280
935.538,1.283
935.785,1.290
936.033,1.301
936.281,1.307
936.529,1.308
936.777,1.303
937.026,1.293
937.275,1.285
937.525,1.276
937.775,1.269
938.025,1.266
938.276,1.267
938.527,1.270
938.778,1.268
939.030,1.265
939.282,1.263
939.535,1.270
939.788,1.282
940.041,1.284
940.295,1.278
940.550,1.275
940.804,1.283
941.059,1.291
941.315,1.283
941.571,1.271
941.828,1.265
942.085,1.270
942.342,1.278
942.600,1.281
942.858,1.281
943.117,1.273
943.377,1.269
943.636,1.261
943.897,1.260
944.158,1.267
944.419,1.279
944.681,1.286
944.944,1.289
945.207,1.289
945.470,1.294
945.734,1.299
945.999,1.311
946.264,1.321
946.530,1.325
946.797,1.321
947.064,1.316
947.331,1.311
947.600,1.299
947.869,1.287
948.138,1.273
948.408,1.265
948.679,1.266
948.950,1.273
949.222,1.277
949.495,1.275
949.768,1.278
950.043,1.289
