Wavelength (nm),Intensity Source #118,,C:\Users\Brend\Desktop\LED Spectras v2\Spectrometer Data.sp,,,Source #118,
379.792,1.922,,2018-06-14 12:31:12,,Integration Time,146 ms,
380.000,1.918,,Analyze Light,,Number of Scans to Average,25,
380.209,1.911,,,,Smoothing,1,
380.418,1.919
380.627,1.933
380.837,1.947
381.048,1.952
381.259,1.956
381.471,1.958
381.683,1.962
381.896,1.972
382.110,1.979
382.324,1.994
382.538,2.012
382.753,2.027
382.969,2.023
383.185,2.016
383.402,2.011
383.619,2.019
383.837,2.028
384.055,2.047
384.274,2.063
384.493,2.073
384.712,2.071
384.932,2.074
385.153,2.081
385.374,2.092
385.596,2.100
385.818,2.118
386.040,2.141
386.263,2.164
386.487,2.168
386.710,2.163
386.935,2.147
387.159,2.141
387.385,2.133
387.610,2.132
387.836,2.132
388.063,2.141
388.289,2.153
388.517,2.166
388.744,2.173
388.972,2.190
389.201,2.199
389.430,2.212
389.659,2.218
389.889,2.231
390.119,2.239
390.349,2.246
390.580,2.253
390.811,2.262
391.042,2.265
391.274,2.267
391.507,2.271
391.739,2.273
391.972,2.268
392.205,2.270
392.439,2.282
392.673,2.300
392.907,2.315
393.142,2.329
393.377,2.340
393.612,2.356
393.848,2.362
394.084,2.365
394.320,2.361
394.557,2.370
394.794,2.379
395.031,2.394
395.269,2.404
395.507,2.418
395.745,2.424
395.983,2.430
396.222,2.438
396.461,2.460
396.700,2.484
396.940,2.500
397.180,2.503
397.420,2.498
397.660,2.493
397.901,2.487
398.142,2.488
398.383,2.492
398.625,2.499
398.866,2.511
399.108,2.532
399.351,2.565
399.593,2.577
399.836,2.576
400.079,2.563
400.322,2.558
400.566,2.554
400.809,2.548
401.053,2.554
401.298,2.566
401.542,2.586
401.787,2.605
402.031,2.619
402.277,2.632
402.522,2.634
402.767,2.638
403.013,2.633
403.259,2.638
403.505,2.642
403.752,2.649
403.998,2.651
404.245,2.667
404.492,2.685
404.739,2.695
404.986,2.695
405.234,2.701
405.482,2.708
405.730,2.717
405.978,2.724
406.226,2.730
406.475,2.722
406.723,2.719
406.972,2.727
407.221,2.751
407.470,2.767
407.720,2.779
407.969,2.773
408.219,2.778
408.469,2.787
408.719,2.806
408.969,2.812
409.219,2.817
409.470,2.818
409.720,2.828
409.971,2.840
410.222,2.864
410.473,2.874
410.724,2.876
410.976,2.874
411.227,2.887
411.479,2.897
411.731,2.908
411.983,2.907
412.235,2.912
412.487,2.913
412.740,2.920
412.992,2.923
413.245,2.930
413.497,2.932
413.750,2.934
414.003,2.930
414.257,2.931
414.510,2.933
414.763,2.945
415.017,2.957
415.270,2.970
415.524,2.971
415.778,2.968
416.032,2.963
416.286,2.973
416.540,2.987
416.794,3.007
417.049,3.009
417.303,3.011
417.558,3.012
417.812,3.020
418.067,3.022
418.322,3.024
418.577,3.018
418.832,3.014
419.088,2.998
419.343,2.995
419.598,2.986
419.854,2.993
420.109,2.997
420.365,3.015
420.621,3.021
420.876,3.031
421.132,3.031
421.388,3.031
421.645,3.027
421.901,3.032
422.157,3.039
422.413,3.047
422.670,3.047
422.926,3.050
423.183,3.046
423.439,3.064
423.696,3.086
423.953,3.133
424.210,3.165
424.467,3.183
424.724,3.179
424.981,3.166
425.238,3.168
425.495,3.197
425.753,3.235
426.010,3.269
426.267,3.286
426.525,3.319
426.782,3.350
427.040,3.390
427.298,3.431
427.555,3.483
427.813,3.527
428.071,3.569
428.329,3.609
428.587,3.663
428.845,3.722
429.103,3.790
429.361,3.852
429.619,3.919
429.878,3.989
430.136,4.078
430.394,4.162
430.653,4.262
430.911,4.363
431.170,4.482
431.428,4.592
431.687,4.712
431.946,4.824
432.204,4.947
432.463,5.070
432.722,5.213
432.981,5.360
433.240,5.528
433.499,5.698
433.758,5.887
434.017,6.068
434.276,6.259
434.535,6.442
434.794,6.648
435.053,6.857
435.312,7.088
435.572,7.312
435.831,7.558
436.090,7.819
436.350,8.106
436.609,8.391
436.869,8.682
437.128,8.976
437.388,9.289
437.647,9.607
437.907,9.951
438.166,10.298
438.426,10.676
438.686,11.054
438.946,11.456
439.205,11.860
439.465,12.306
439.725,12.770
439.985,13.257
440.245,13.742
440.505,14.247
440.765,14.760
441.025,15.282
441.285,15.821
441.545,16.380
441.805,16.967
442.065,17.578
442.325,18.217
442.585,18.886
442.846,19.594
443.106,20.354
443.366,21.158
443.626,21.988
443.887,22.854
444.147,23.746
444.407,24.685
444.668,25.659
444.928,26.681
445.189,27.764
445.449,28.892
445.710,30.069
445.970,31.291
446.231,32.587
446.491,33.951
446.752,35.372
447.012,36.835
447.273,38.365
447.534,39.936
447.794,41.558
448.055,43.225
448.316,45.001
448.577,46.874
448.837,48.816
449.098,50.796
449.359,52.789
449.620,54.815
449.881,56.868
450.142,58.969
450.403,61.116
450.664,63.320
450.924,65.561
451.185,67.811
451.446,70.059
451.707,72.290
451.969,74.516
452.230,76.681
452.491,78.777
452.752,80.761
453.013,82.606
453.274,84.226
453.535,85.593
453.796,86.703
454.058,87.634
454.319,88.440
454.580,89.139
454.841,89.743
455.103,90.253
455.364,90.688
455.625,91.058
455.887,91.358
456.148,91.593
456.409,91.763
456.671,91.873
456.932,91.925
457.194,91.918
457.455,91.860
457.716,91.752
457.978,91.602
458.239,91.401
458.501,91.149
458.763,90.822
459.024,90.435
459.286,89.981
459.547,89.456
459.809,88.840
460.071,88.112
460.332,87.293
460.594,86.350
460.856,85.271
461.117,83.976
461.379,82.494
461.641,80.853
461.903,79.145
462.164,77.398
462.426,75.646
462.688,73.903
462.950,72.174
463.212,70.463
463.474,68.778
463.736,67.114
463.998,65.507
464.260,63.961
464.522,62.514
464.784,61.133
465.046,59.816
465.308,58.556
465.570,57.363
465.832,56.232
466.094,55.150
466.356,54.101
466.618,53.090
466.880,52.095
467.142,51.140
467.405,50.228
467.667,49.381
467.929,48.557
468.191,47.756
468.454,46.967
468.716,46.197
468.978,45.425
469.241,44.648
469.503,43.877
469.765,43.130
470.028,42.397
470.290,41.680
470.552,40.955
470.815,40.245
471.077,39.532
471.340,38.829
471.602,38.106
471.865,37.384
472.128,36.657
472.390,35.960
472.653,35.257
472.915,34.543
473.178,33.808
473.441,33.076
473.703,32.343
473.966,31.598
474.229,30.838
474.492,30.071
474.755,29.307
475.017,28.570
475.280,27.871
475.543,27.193
475.806,26.492
476.069,25.780
476.332,25.068
476.595,24.388
476.858,23.715
477.121,23.052
477.384,22.400
477.647,21.781
477.910,21.190
478.173,20.612
478.436,20.039
478.699,19.499
478.962,18.981
479.226,18.495
479.489,18.000
479.752,17.525
480.015,17.058
480.279,16.616
480.542,16.181
480.805,15.753
481.069,15.334
481.332,14.943
481.595,14.575
481.859,14.233
482.122,13.879
482.386,13.535
482.649,13.203
482.913,12.900
483.177,12.594
483.440,12.284
483.704,11.984
483.967,11.723
484.231,11.479
484.495,11.244
484.759,10.987
485.022,10.725
485.286,10.463
485.550,10.218
485.814,9.964
486.078,9.719
486.342,9.479
486.606,9.270
486.869,9.064
487.133,8.877
487.397,8.692
487.662,8.511
487.926,8.313
488.190,8.116
488.454,7.902
488.718,7.704
488.982,7.488
489.246,7.299
489.511,7.105
489.775,6.930
490.039,6.752
490.304,6.581
490.568,6.395
490.832,6.217
491.097,6.051
491.361,5.911
491.626,5.763
491.890,5.612
492.155,5.457
492.419,5.323
492.684,5.183
492.949,5.045
493.213,4.903
493.478,4.779
493.743,4.643
494.008,4.500
494.272,4.358
494.537,4.245
494.802,4.146
495.067,4.060
495.332,3.977
495.597,3.902
495.862,3.810
496.127,3.718
496.392,3.621
496.657,3.533
496.922,3.441
497.187,3.360
497.452,3.291
497.718,3.240
497.983,3.181
498.248,3.119
498.513,3.049
498.779,3.002
499.044,2.962
499.310,2.913
499.575,2.844
499.841,2.788
500.106,2.743
500.372,2.700
500.637,2.653
500.903,2.620
501.168,2.588
501.434,2.547
501.700,2.492
501.966,2.449
502.231,2.412
502.497,2.379
502.763,2.343
503.029,2.309
503.295,2.282
503.561,2.260
503.827,2.242
504.093,2.225
504.359,2.204
504.625,2.183
504.891,2.153
505.157,2.131
505.423,2.101
505.690,2.068
505.956,2.037
506.222,2.021
506.489,2.027
506.755,2.035
507.021,2.032
507.288,2.018
507.554,1.993
507.821,1.974
508.087,1.957
508.354,1.959
508.621,1.953
508.887,1.937
509.154,1.914
509.421,1.901
509.687,1.887
509.954,1.868
510.221,1.847
510.488,1.842
510.755,1.842
511.022,1.846
511.289,1.832
511.556,1.814
511.823,1.795
512.090,1.792
512.357,1.786
512.624,1.779
512.891,1.765
513.159,1.753
513.426,1.739
513.693,1.728
513.960,1.721
514.228,1.720
514.495,1.717
514.763,1.713
515.030,1.704
515.298,1.696
515.565,1.694
515.833,1.695
516.100,1.694
516.368,1.689
516.636,1.678
516.904,1.671
517.171,1.657
517.439,1.647
517.707,1.635
517.975,1.634
518.243,1.635
518.511,1.635
518.779,1.623
519.047,1.619
519.315,1.620
519.583,1.616
519.851,1.599
520.119,1.585
520.387,1.583
520.656,1.589
520.924,1.598
521.192,1.606
521.461,1.610
521.729,1.609
521.997,1.608
522.266,1.605
522.534,1.600
522.803,1.596
523.071,1.587
523.340,1.573
523.609,1.561
523.877,1.555
524.146,1.557
524.415,1.562
524.684,1.568
524.952,1.566
525.221,1.561
525.490,1.563
525.759,1.570
526.028,1.569
526.297,1.548
526.566,1.531
526.835,1.523
527.104,1.526
527.373,1.533
527.642,1.538
527.912,1.533
528.181,1.522
528.450,1.515
528.719,1.519
528.989,1.534
529.258,1.545
529.528,1.548
529.797,1.538
530.067,1.534
530.336,1.531
530.606,1.530
530.875,1.520
531.145,1.513
531.414,1.512
531.684,1.520
531.954,1.518
532.224,1.506
532.493,1.484
532.763,1.476
533.033,1.481
533.303,1.496
533.573,1.507
533.843,1.503
534.113,1.495
534.383,1.482
534.653,1.483
534.923,1.486
535.193,1.493
535.463,1.500
535.733,1.503
536.004,1.507
536.274,1.509
536.544,1.504
536.814,1.493
537.085,1.482
537.355,1.489
537.626,1.506
537.896,1.517
538.166,1.513
538.437,1.502
538.707,1.494
538.978,1.499
539.249,1.515
539.519,1.526
539.790,1.520
540.061,1.516
540.331,1.524
540.602,1.544
540.873,1.552
541.144,1.550
541.414,1.537
541.685,1.528
541.956,1.519
542.227,1.516
542.498,1.508
542.769,1.506
543.040,1.514
543.311,1.535
543.582,1.557
543.853,1.565
544.124,1.566
544.396,1.564
544.667,1.565
544.938,1.563
545.209,1.536
545.480,1.513
545.752,1.496
546.023,1.505
546.294,1.505
546.566,1.497
546.837,1.486
547.109,1.479
547.380,1.473
547.652,1.466
547.923,1.463
548.195,1.471
548.466,1.486
548.738,1.503
549.009,1.501
549.281,1.490
549.553,1.471
549.824,1.455
550.096,1.444
550.368,1.440
550.640,1.440
550.911,1.445
551.183,1.460
551.455,1.489
551.727,1.509
551.999,1.508
552.271,1.490
552.543,1.476
552.815,1.468
553.087,1.472
553.359,1.477
553.631,1.482
553.903,1.477
554.175,1.477
554.447,1.484
554.719,1.489
554.991,1.491
555.263,1.490
555.535,1.482
555.808,1.470
556.080,1.456
556.352,1.453
556.624,1.453
556.897,1.455
557.169,1.456
557.441,1.454
557.714,1.450
557.986,1.444
558.258,1.439
558.531,1.442
558.803,1.449
559.076,1.456
559.348,1.455
559.621,1.451
559.893,1.450
560.166,1.450
560.438,1.451
560.711,1.444
560.983,1.441
561.256,1.442
561.528,1.451
561.801,1.460
562.074,1.467
562.346,1.472
562.619,1.477
562.892,1.475
563.164,1.469
563.437,1.465
563.710,1.464
563.983,1.454
564.255,1.444
564.528,1.447
564.801,1.461
565.074,1.469
565.346,1.465
565.619,1.461
565.892,1.467
566.165,1.466
566.438,1.453
566.711,1.439
566.984,1.433
567.257,1.433
567.529,1.439
567.802,1.452
568.075,1.465
568.348,1.463
568.621,1.459
568.894,1.453
569.167,1.452
569.440,1.443
569.713,1.431
569.986,1.426
570.259,1.425
570.532,1.434
570.805,1.441
571.078,1.444
571.351,1.445
571.625,1.446
571.898,1.447
572.171,1.439
572.444,1.431
572.717,1.437
572.990,1.451
573.263,1.452
573.536,1.441
573.809,1.423
574.083,1.414
574.356,1.414
574.629,1.427
574.902,1.438
575.175,1.439
575.448,1.428
575.721,1.421
575.995,1.421
576.268,1.424
576.541,1.430
576.814,1.437
577.087,1.444
577.361,1.447
577.634,1.446
577.907,1.436
578.180,1.418
578.453,1.407
578.727,1.409
579.000,1.416
579.273,1.425
579.546,1.436
579.820,1.454
580.093,1.460
580.366,1.455
580.639,1.438
580.913,1.427
581.186,1.417
581.459,1.414
581.732,1.408
582.005,1.409
582.279,1.409
582.552,1.415
582.825,1.418
583.098,1.422
583.372,1.427
583.645,1.431
583.918,1.433
584.191,1.434
584.464,1.428
584.738,1.425
585.011,1.425
585.284,1.429
585.557,1.432
585.831,1.436
586.104,1.447
586.377,1.463
586.650,1.470
586.923,1.466
587.196,1.458
587.470,1.445
587.743,1.434
588.016,1.425
588.289,1.427
588.562,1.436
588.835,1.437
589.109,1.429
589.382,1.420
589.655,1.413
589.928,1.412
590.201,1.410
590.474,1.419
590.747,1.433
591.020,1.447
591.293,1.448
591.567,1.442
591.840,1.431
592.113,1.422
592.386,1.410
592.659,1.402
592.932,1.398
593.205,1.407
593.478,1.415
593.751,1.416
594.024,1.411
594.297,1.402
594.570,1.399
594.843,1.406
595.116,1.420
595.389,1.427
595.662,1.425
595.934,1.424
596.207,1.427
596.480,1.435
596.753,1.441
597.026,1.443
597.299,1.441
597.572,1.437
597.844,1.430
598.117,1.419
598.390,1.411
598.663,1.408
598.936,1.412
599.208,1.414
599.481,1.418
599.754,1.420
600.026,1.412
600.299,1.400
600.572,1.392
600.844,1.389
601.117,1.388
601.390,1.386
601.662,1.387
601.935,1.387
602.207,1.388
602.480,1.395
602.752,1.400
603.025,1.397
603.297,1.394
603.570,1.401
603.842,1.417
604.115,1.431
604.387,1.437
604.660,1.432
604.932,1.429
605.204,1.432
605.477,1.442
605.749,1.453
606.021,1.461
606.294,1.463
606.566,1.455
606.838,1.448
607.110,1.446
607.383,1.453
607.655,1.460
607.927,1.471
608.199,1.481
608.471,1.486
608.743,1.477
609.015,1.464
609.287,1.453
609.559,1.451
609.831,1.456
610.103,1.461
610.375,1.461
610.647,1.453
610.919,1.442
611.191,1.437
611.463,1.439
611.735,1.438
612.007,1.428
612.278,1.419
612.550,1.416
612.822,1.422
613.094,1.429
613.365,1.432
613.637,1.437
613.909,1.438
614.180,1.440
614.452,1.436
614.723,1.430
614.995,1.422
615.266,1.418
615.538,1.422
615.809,1.428
616.081,1.424
616.352,1.416
616.623,1.410
616.895,1.409
617.166,1.405
617.437,1.402
617.709,1.404
617.980,1.412
618.251,1.424
618.522,1.433
618.793,1.446
619.065,1.458
619.336,1.455
619.607,1.443
619.878,1.434
620.149,1.441
620.420,1.448
620.691,1.444
620.962,1.441
621.232,1.443
621.503,1.439
621.774,1.431
622.045,1.426
622.316,1.434
622.586,1.449
622.857,1.461
623.128,1.460
623.398,1.453
623.669,1.442
623.940,1.432
624.210,1.423
624.481,1.422
624.751,1.423
625.021,1.420
625.292,1.412
625.562,1.411
625.833,1.410
626.103,1.406
626.373,1.396
626.643,1.393
626.914,1.396
627.184,1.406
627.454,1.413
627.724,1.417
627.994,1.419
628.264,1.420
628.534,1.416
628.804,1.415
629.074,1.418
629.344,1.426
629.614,1.426
629.884,1.418
630.154,1.404
630.424,1.389
630.693,1.374
630.963,1.360
631.233,1.351
631.502,1.355
631.772,1.372
632.041,1.391
632.311,1.398
632.581,1.402
632.850,1.402
633.119,1.392
633.389,1.376
633.658,1.365
633.928,1.371
634.197,1.385
634.466,1.402
634.735,1.415
635.004,1.415
635.274,1.407
635.543,1.395
635.812,1.393
636.081,1.394
636.350,1.396
636.619,1.397
636.888,1.397
637.157,1.400
637.426,1.408
637.694,1.411
637.963,1.409
638.232,1.401
638.501,1.395
638.769,1.398
639.038,1.405
639.307,1.416
639.575,1.425
639.844,1.423
640.112,1.415
640.381,1.400
640.649,1.395
640.917,1.394
641.186,1.395
641.454,1.396
641.722,1.396
641.991,1.396
642.259,1.389
642.527,1.385
642.795,1.383
643.063,1.379
643.331,1.376
643.599,1.374
643.867,1.382
644.135,1.391
644.403,1.401
644.671,1.408
644.939,1.416
645.206,1.420
645.474,1.422
645.742,1.411
646.009,1.392
646.277,1.380
646.545,1.385
646.812,1.405
647.080,1.423
647.347,1.429
647.615,1.424
647.882,1.408
648.149,1.391
648.417,1.382
648.684,1.384
648.951,1.394
649.219,1.400
649.486,1.399
649.753,1.393
650.020,1.387
650.287,1.385
650.554,1.386
650.821,1.386
651.088,1.386
651.355,1.395
651.622,1.399
651.889,1.401
652.155,1.393
652.422,1.390
652.689,1.394
652.956,1.399
653.222,1.410
653.489,1.425
653.755,1.431
654.022,1.423
654.288,1.404
654.555,1.394
654.821,1.393
655.088,1.399
655.354,1.406
655.620,1.415
655.887,1.419
656.153,1.422
656.419,1.420
656.685,1.419
656.951,1.415
657.217,1.410
657.483,1.401
657.749,1.397
658.015,1.400
658.281,1.404
658.547,1.401
658.813,1.389
659.079,1.380
659.345,1.376
659.610,1.378
659.876,1.377
660.142,1.376
660.407,1.375
660.673,1.377
660.939,1.382
661.204,1.381
661.470,1.378
661.735,1.374
662.000,1.376
662.266,1.377
662.531,1.375
662.796,1.371
663.062,1.369
663.327,1.368
663.592,1.372
663.857,1.376
664.122,1.379
664.388,1.374
664.653,1.376
664.918,1.382
665.183,1.389
665.448,1.395
665.712,1.399
665.977,1.406
666.242,1.405
666.507,1.391
666.772,1.377
667.037,1.367
667.301,1.367
667.566,1.370
667.831,1.375
668.095,1.382
668.360,1.384
668.624,1.381
668.889,1.382
669.153,1.377
669.418,1.376
669.682,1.376
669.946,1.384
670.211,1.395
670.475,1.403
670.739,1.411
671.004,1.420
671.268,1.442
671.532,1.466
671.796,1.462
672.060,1.444
672.324,1.425
672.588,1.431
672.852,1.444
673.116,1.483
673.380,1.521
673.644,1.503
673.908,1.452
674.172,1.403
674.436,1.404
674.700,1.408
674.963,1.410
675.227,1.408
675.491,1.401
675.754,1.390
676.018,1.384
676.282,1.389
676.545,1.397
676.809,1.399
677.072,1.394
677.336,1.387
677.599,1.385
677.863,1.385
678.126,1.390
678.389,1.400
678.653,1.409
678.916,1.410
679.179,1.397
679.442,1.390
679.706,1.394
679.969,1.401
680.232,1.406
680.495,1.414
680.758,1.422
681.021,1.420
681.284,1.408
681.547,1.398
681.810,1.401
682.073,1.414
682.336,1.423
682.599,1.421
682.862,1.411
683.125,1.405
683.388,1.406
683.651,1.406
683.913,1.400
684.176,1.389
684.439,1.375
684.702,1.365
684.964,1.362
685.227,1.368
685.490,1.379
685.752,1.392
686.015,1.399
686.277,1.399
686.540,1.390
686.802,1.380
687.065,1.378
687.327,1.384
687.590,1.390
687.852,1.385
688.115,1.374
688.377,1.368
688.639,1.368
688.902,1.369
689.164,1.372
689.426,1.386
689.689,1.400
689.951,1.402
690.213,1.395
690.475,1.391
690.737,1.392
691.000,1.391
691.262,1.390
691.524,1.395
691.786,1.404
692.048,1.413
692.310,1.408
692.572,1.390
692.834,1.367
693.096,1.358
693.358,1.369
693.620,1.388
693.882,1.404
694.144,1.408
694.406,1.401
694.668,1.396
694.930,1.387
695.192,1.382
695.453,1.381
695.715,1.384
695.977,1.383
696.239,1.375
696.501,1.372
696.762,1.378
697.024,1.384
697.286,1.380
697.548,1.376
697.809,1.370
698.071,1.369
698.333,1.368
698.594,1.371
698.856,1.379
699.118,1.386
699.379,1.390
699.641,1.395
699.902,1.403
700.164,1.405
700.426,1.398
700.687,1.386
700.949,1.379
701.210,1.378
701.472,1.375
701.733,1.371
701.995,1.373
702.256,1.379
702.518,1.381
702.779,1.380
703.041,1.390
703.302,1.404
703.563,1.407
703.825,1.396
704.086,1.385
704.348,1.382
704.609,1.384
704.871,1.393
705.132,1.403
705.393,1.402
705.655,1.395
705.916,1.390
706.177,1.389
706.439,1.388
706.700,1.382
706.961,1.383
707.223,1.385
707.484,1.376
707.745,1.363
708.007,1.348
708.268,1.336
708.529,1.323
708.790,1.306
709.052,1.301
709.313,1.304
709.574,1.312
709.835,1.315
710.097,1.308
710.358,1.291
710.619,1.277
710.881,1.270
711.142,1.265
711.403,1.261
711.664,1.257
711.926,1.256
712.187,1.261
712.448,1.268
712.709,1.277
712.970,1.284
713.232,1.291
713.493,1.295
713.754,1.296
714.015,1.297
714.277,1.305
714.538,1.314
714.799,1.323
715.060,1.325
715.322,1.325
715.583,1.318
715.844,1.309
716.105,1.294
716.367,1.286
716.628,1.284
716.889,1.286
717.150,1.283
717.411,1.278
717.673,1.280
717.934,1.285
718.195,1.292
718.457,1.288
718.718,1.278
718.979,1.270
719.240,1.271
719.502,1.281
719.763,1.292
720.024,1.296
720.286,1.294
720.547,1.284
720.808,1.274
721.069,1.270
721.331,1.277
721.592,1.289
721.853,1.296
722.115,1.300
722.376,1.302
722.638,1.300
722.899,1.298
723.160,1.292
723.422,1.285
723.683,1.279
723.944,1.281
724.206,1.284
724.467,1.286
724.729,1.284
724.990,1.285
725.252,1.289
725.513,1.282
725.775,1.266
726.036,1.251
726.298,1.246
726.559,1.253
726.821,1.259
727.082,1.264
727.344,1.263
727.605,1.264
727.867,1.264
728.128,1.270
728.390,1.272
728.652,1.282
728.913,1.294
729.175,1.304
729.436,1.307
729.698,1.306
729.960,1.304
730.221,1.298
730.483,1.284
730.745,1.279
731.007,1.276
731.268,1.276
731.530,1.274
731.792,1.272
732.054,1.274
732.315,1.276
732.577,1.279
732.839,1.276
733.101,1.270
733.363,1.266
733.625,1.267
733.887,1.272
734.149,1.276
734.411,1.282
734.673,1.286
734.935,1.287
735.197,1.282
735.459,1.281
735.721,1.284
735.983,1.284
736.245,1.272
736.507,1.270
736.769,1.275
737.031,1.283
737.293,1.278
737.555,1.267
737.818,1.256
738.080,1.248
738.342,1.247
738.604,1.247
738.867,1.252
739.129,1.254
739.391,1.256
739.654,1.259
739.916,1.263
740.178,1.270
740.441,1.279
740.703,1.284
740.966,1.282
741.228,1.277
741.491,1.272
741.753,1.273
742.016,1.272
742.278,1.272
742.541,1.271
742.804,1.270
743.066,1.276
743.329,1.281
743.592,1.281
743.854,1.278
744.117,1.279
744.380,1.282
744.643,1.280
744.905,1.274
745.168,1.271
745.431,1.268
745.694,1.264
745.957,1.261
746.220,1.259
746.483,1.261
746.746,1.264
747.009,1.276
747.272,1.293
747.535,1.306
747.798,1.305
748.061,1.292
748.324,1.275
748.588,1.264
748.851,1.260
749.114,1.260
749.377,1.264
749.641,1.267
749.904,1.272
750.167,1.279
750.431,1.287
750.694,1.296
750.958,1.303
751.221,1.298
751.485,1.284
751.748,1.272
752.012,1.276
752.275,1.292
752.539,1.295
752.803,1.287
753.066,1.271
753.330,1.269
753.594,1.270
753.857,1.273
754.121,1.277
754.385,1.283
754.649,1.285
754.913,1.286
755.177,1.288
755.441,1.284
755.705,1.271
755.969,1.258
756.233,1.261
756.497,1.271
756.761,1.275
757.025,1.271
757.289,1.269
757.553,1.270
757.818,1.276
758.082,1.283
758.346,1.285
758.610,1.287
758.875,1.283
759.139,1.278
759.404,1.272
759.668,1.269
759.932,1.274
760.197,1.284
760.462,1.287
760.726,1.285
760.991,1.282
761.255,1.284
761.520,1.284
761.785,1.275
762.049,1.259
762.314,1.250
762.579,1.255
762.844,1.269
763.109,1.279
763.374,1.279
763.639,1.274
763.903,1.270
764.168,1.267
764.433,1.270
764.699,1.279
764.964,1.286
765.229,1.281
765.494,1.270
765.759,1.263
766.024,1.264
766.290,1.270
766.555,1.278
766.820,1.281
767.086,1.283
767.351,1.284
767.616,1.283
767.882,1.279
768.147,1.278
768.413,1.275
768.678,1.273
768.944,1.272
769.209,1.278
769.475,1.287
769.741,1.296
770.006,1.303
770.272,1.306
770.538,1.304
770.804,1.298
771.070,1.295
771.335,1.300
771.601,1.312
771.867,1.317
772.133,1.313
772.399,1.303
772.665,1.287
772.931,1.284
773.197,1.288
773.464,1.300
773.730,1.303
773.996,1.303
774.262,1.306
774.528,1.305
774.795,1.306
775.061,1.309
775.327,1.311
775.594,1.305
775.860,1.291
776.126,1.274
776.393,1.262
776.659,1.259
776.926,1.259
777.193,1.260
777.459,1.259
777.726,1.255
777.992,1.252
778.259,1.248
778.526,1.253
778.793,1.260
779.059,1.272
779.326,1.282
779.593,1.290
779.860,1.298
780.127,1.302
780.394,1.301
780.661,1.296
780.928,1.291
781.195,1.285
781.462,1.277
781.729,1.274
781.996,1.274
782.263,1.276
782.530,1.281
782.797,1.282
783.064,1.276
783.332,1.267
783.599,1.264
783.866,1.269
784.134,1.271
784.401,1.273
784.668,1.275
784.936,1.275
785.203,1.270
785.470,1.261
785.738,1.257
786.005,1.257
786.273,1.256
786.541,1.251
786.808,1.248
787.076,1.251
787.343,1.256
787.611,1.266
787.879,1.277
788.146,1.283
788.414,1.286
788.682,1.282
788.950,1.283
789.217,1.285
789.485,1.299
789.753,1.308
790.021,1.303
790.289,1.282
790.557,1.260
790.825,1.248
791.093,1.252
791.361,1.269
791.629,1.286
791.897,1.295
792.165,1.295
792.433,1.288
792.701,1.273
792.969,1.256
793.237,1.245
793.505,1.249
793.773,1.258
794.042,1.262
794.310,1.262
794.578,1.262
794.846,1.267
795.115,1.270
795.383,1.271
795.651,1.277
795.920,1.280
796.188,1.279
796.456,1.281
796.725,1.286
796.993,1.296
797.261,1.297
797.530,1.293
797.798,1.286
798.067,1.291
798.335,1.298
798.604,1.298
798.872,1.285
799.141,1.272
799.409,1.267
799.678,1.270
799.946,1.275
800.215,1.279
800.483,1.278
800.752,1.280
801.020,1.279
801.289,1.277
801.558,1.272
801.826,1.269
802.095,1.263
802.363,1.262
802.632,1.265
802.901,1.274
803.169,1.278
803.438,1.274
803.707,1.263
803.976,1.254
804.244,1.252
804.513,1.256
804.782,1.257
805.050,1.257
805.319,1.264
805.588,1.278
805.857,1.288
806.125,1.288
806.394,1.284
806.663,1.276
806.931,1.269
807.200,1.263
807.469,1.263
807.738,1.261
808.006,1.259
808.275,1.264
808.544,1.279
808.813,1.296
809.082,1.298
809.350,1.287
809.619,1.276
809.888,1.270
810.157,1.269
810.425,1.267
810.694,1.269
810.963,1.274
811.232,1.272
811.500,1.265
811.769,1.256
812.038,1.258
812.306,1.266
812.575,1.275
812.844,1.280
813.113,1.282
813.381,1.279
813.650,1.281
813.919,1.284
814.187,1.288
814.456,1.289
814.725,1.289
814.993,1.286
815.262,1.283
815.531,1.279
815.799,1.277
816.068,1.270
816.336,1.262
816.605,1.259
816.873,1.261
817.142,1.269
817.411,1.277
817.679,1.281
817.948,1.290
818.216,1.305
818.485,1.338
818.753,1.361
819.021,1.348
819.290,1.310
819.558,1.281
819.827,1.281
820.095,1.288
820.363,1.289
820.632,1.288
820.900,1.286
821.168,1.286
821.437,1.288
821.705,1.292
821.973,1.294
822.241,1.294
822.509,1.295
822.777,1.290
823.046,1.285
823.314,1.284
823.582,1.290
823.850,1.297
824.118,1.302
824.386,1.300
824.654,1.284
824.922,1.266
825.190,1.256
825.457,1.264
825.725,1.275
825.993,1.277
826.261,1.272
826.529,1.271
826.796,1.274
827.064,1.273
827.332,1.270
827.599,1.273
827.867,1.284
828.134,1.291
828.402,1.287
828.669,1.277
828.937,1.273
829.204,1.285
829.471,1.302
829.739,1.310
830.006,1.305
830.273,1.292
830.540,1.284
830.807,1.273
831.075,1.269
831.342,1.270
831.609,1.274
831.876,1.278
832.142,1.283
832.409,1.288
832.676,1.285
832.943,1.275
833.210,1.264
833.476,1.260
833.743,1.265
834.010,1.272
834.276,1.269
834.543,1.261
834.809,1.261
835.076,1.265
835.342,1.268
835.608,1.277
835.874,1.287
836.141,1.290
836.407,1.283
836.673,1.276
836.939,1.275
837.205,1.273
837.471,1.272
837.737,1.271
838.002,1.270
838.268,1.270
838.534,1.272
838.799,1.274
839.065,1.279
839.330,1.282
839.596,1.282
839.861,1.284
840.127,1.289
840.392,1.292
840.657,1.291
840.922,1.294
841.187,1.301
841.452,1.307
841.717,1.308
841.982,1.300
842.247,1.291
842.511,1.283
842.776,1.284
843.041,1.285
843.305,1.277
843.570,1.266
843.834,1.260
844.098,1.258
844.362,1.260
844.627,1.259
844.891,1.265
845.155,1.272
845.419,1.280
845.682,1.282
845.946,1.280
846.210,1.281
846.474,1.282
846.737,1.285
847.001,1.283
847.264,1.272
847.527,1.266
847.790,1.268
848.054,1.274
848.317,1.270
848.580,1.265
848.843,1.265
849.105,1.278
849.368,1.291
849.631,1.297
849.893,1.297
850.156,1.300
850.418,1.303
850.680,1.292
850.943,1.283
851.205,1.284
851.467,1.288
851.729,1.283
851.991,1.277
852.252,1.281
852.514,1.291
852.776,1.297
853.037,1.301
853.298,1.299
853.560,1.292
853.821,1.276
854.082,1.261
854.343,1.260
854.604,1.275
854.865,1.300
855.126,1.315
855.386,1.321
855.647,1.321
855.907,1.317
856.168,1.305
856.428,1.291
856.688,1.282
856.948,1.267
857.208,1.257
857.468,1.255
857.727,1.264
857.987,1.270
858.247,1.278
858.506,1.287
858.765,1.291
859.024,1.280
859.284,1.266
859.543,1.258
859.801,1.258
860.060,1.262
860.319,1.272
860.577,1.282
860.836,1.289
861.094,1.291
861.352,1.292
861.611,1.290
861.869,1.283
862.127,1.278
862.384,1.278
862.642,1.281
862.900,1.288
863.157,1.288
863.414,1.284
863.672,1.273
863.929,1.261
864.186,1.259
864.443,1.263
864.699,1.270
864.956,1.273
865.212,1.267
865.469,1.264
865.725,1.271
865.981,1.286
866.237,1.293
866.493,1.294
866.749,1.282
867.005,1.275
867.260,1.265
867.516,1.259
867.771,1.251
868.026,1.252
868.282,1.265
868.536,1.277
868.791,1.279
869.046,1.268
869.301,1.261
869.555,1.263
869.809,1.276
870.064,1.288
870.318,1.299
870.572,1.306
870.826,1.294
871.079,1.278
871.333,1.266
871.586,1.271
871.840,1.274
872.093,1.271
872.346,1.276
872.599,1.292
872.852,1.310
873.105,1.316
873.357,1.309
873.610,1.296
873.862,1.292
874.114,1.297
874.366,1.303
874.618,1.299
874.870,1.283
875.121,1.268
875.373,1.261
875.624,1.267
875.876,1.272
876.127,1.272
876.378,1.269
876.629,1.266
876.879,1.272
877.130,1.278
877.381,1.277
877.631,1.264
877.881,1.251
878.131,1.254
878.381,1.269
878.631,1.291
878.881,1.304
879.130,1.305
879.380,1.298
879.629,1.288
879.878,1.279
880.127,1.270
880.376,1.268
880.625,1.272
880.873,1.282
881.122,1.292
881.370,1.295
881.618,1.291
881.866,1.282
882.114,1.273
882.362,1.269
882.610,1.272
882.857,1.277
883.105,1.280
883.352,1.272
883.599,1.264
883.846,1.257
884.093,1.258
884.340,1.266
884.586,1.275
884.833,1.282
885.079,1.282
885.325,1.277
885.571,1.274
885.817,1.276
886.063,1.284
886.309,1.292
886.554,1.303
886.800,1.312
887.045,1.314
887.290,1.300
887.535,1.282
887.780,1.275
888.025,1.282
888.270,1.297
888.514,1.310
888.758,1.314
889.003,1.308
889.247,1.288
889.491,1.283
889.735,1.289
889.978,1.303
890.222,1.305
890.465,1.298
890.709,1.290
890.952,1.281
891.195,1.275
891.438,1.272
891.681,1.269
891.923,1.270
892.166,1.275
892.408,1.280
892.651,1.276
892.893,1.266
893.135,1.262
893.377,1.263
893.619,1.266
893.861,1.270
894.102,1.278
894.344,1.293
894.585,1.310
894.826,1.318
895.067,1.307
895.308,1.294
895.549,1.281
895.790,1.275
896.031,1.268
896.271,1.272
896.512,1.285
896.752,1.298
896.992,1.296
897.232,1.282
897.472,1.270
897.712,1.278
897.952,1.295
898.191,1.306
898.431,1.307
898.670,1.308
898.910,1.311
899.149,1.318
899.388,1.323
899.627,1.323
899.866,1.314
900.105,1.300
900.343,1.290
900.582,1.289
900.820,1.296
901.059,1.308
901.297,1.315
901.535,1.301
901.773,1.278
902.011,1.259
902.249,1.250
902.487,1.250
902.725,1.255
902.963,1.265
903.200,1.267
903.438,1.266
903.675,1.268
903.912,1.277
904.150,1.289
904.387,1.294
904.624,1.286
904.861,1.275
905.098,1.268
905.334,1.273
905.571,1.274
905.808,1.276
906.045,1.283
906.281,1.292
906.518,1.296
906.754,1.297
906.990,1.296
907.227,1.293
907.463,1.282
907.699,1.278
907.935,1.284
908.171,1.295
908.407,1.291
908.643,1.282
908.879,1.276
909.115,1.283
909.350,1.291
909.586,1.295
909.822,1.295
910.057,1.303
910.293,1.320
910.528,1.331
910.764,1.327
910.999,1.323
911.235,1.314
911.470,1.313
911.706,1.305
911.941,1.306
912.176,1.301
912.412,1.294
912.647,1.289
912.882,1.290
913.117,1.292
913.352,1.293
913.588,1.286
913.823,1.283
914.058,1.278
914.293,1.280
914.528,1.276
914.763,1.272
914.999,1.267
915.234,1.269
915.469,1.273
915.704,1.275
915.939,1.273
916.174,1.267
916.409,1.266
916.645,1.278
916.880,1.290
917.115,1.300
917.350,1.298
917.586,1.296
917.821,1.297
918.056,1.304
918.292,1.308
918.527,1.303
918.763,1.291
918.998,1.284
919.234,1.293
919.469,1.307
919.705,1.313
919.940,1.306
920.176,1.298
920.412,1.298
920.648,1.294
920.884,1.288
921.120,1.281
921.356,1.280
921.592,1.278
921.828,1.279
922.065,1.281
922.301,1.290
922.537,1.298
922.774,1.301
923.011,1.291
923.247,1.275
923.484,1.272
923.721,1.280
923.958,1.291
924.195,1.289
924.433,1.283
924.670,1.269
924.908,1.257
925.145,1.258
925.383,1.273
925.621,1.290
925.859,1.298
926.097,1.299
926.335,1.298
926.574,1.303
926.813,1.309
927.051,1.310
927.290,1.305
927.529,1.309
927.769,1.324
928.008,1.331
928.248,1.315
928.487,1.297
928.727,1.290
928.967,1.301
929.208,1.307
929.448,1.307
929.689,1.298
929.930,1.288
930.171,1.273
930.413,1.264
930.654,1.259
930.896,1.255
931.138,1.248
931.380,1.242
931.623,1.252
931.865,1.267
932.108,1.283
932.352,1.290
932.595,1.293
932.839,1.296
933.083,1.290
933.327,1.280
933.571,1.266
933.816,1.266
934.061,1.270
934.307,1.274
934.552,1.269
934.798,1.269
935.045,1.273
935.291,1.280
935.538,1.285
935.785,1.290
936.033,1.296
936.281,1.299
936.529,1.298
936.777,1.296
937.026,1.288
937.275,1.282
937.525,1.270
937.775,1.263
938.025,1.260
938.276,1.259
938.527,1.259
938.778,1.257
939.030,1.258
939.282,1.260
939.535,1.266
939.788,1.276
940.041,1.277
940.295,1.271
940.550,1.269
940.804,1.279
941.059,1.290
941.315,1.287
941.571,1.274
941.828,1.266
942.085,1.265
942.342,1.270
942.600,1.272
942.858,1.270
943.117,1.262
943.377,1.256
943.636,1.249
943.897,1.247
944.158,1.253
944.419,1.264
944.681,1.272
944.944,1.276
945.207,1.282
945.470,1.290
945.734,1.295
945.999,1.304
946.264,1.313
946.530,1.317
946.797,1.313
947.064,1.305
947.331,1.296
947.600,1.282
947.869,1.273
948.138,1.266
948.408,1.263
948.679,1.264
948.950,1.269
949.222,1.271
949.495,1.268
949.768,1.268
950.043,1.279
