Wavelength (nm),Intensity Source #120,,C:\Users\Brend\Desktop\LED Spectras v2\Spectrometer Data.sp,,,Source #120,
379.792,1.899,,2018-06-14 12:36:27,,Integration Time,152 ms,
380.000,1.898,,Analyze Light,,Number of Scans to Average,25,
380.209,1.893,,,,Smoothing,1,
380.418,1.901
380.627,1.915
380.837,1.929
381.048,1.938
381.259,1.937
381.471,1.934
381.683,1.939
381.896,1.951
382.110,1.959
382.324,1.972
382.538,1.989
382.753,2.007
382.969,2.005
383.185,1.995
383.402,1.984
383.619,1.990
383.837,2.002
384.055,2.024
384.274,2.046
384.493,2.062
384.712,2.065
384.932,2.063
385.153,2.063
385.374,2.067
385.596,2.073
385.818,2.087
386.040,2.107
386.263,2.126
386.487,2.132
386.710,2.134
386.935,2.125
387.159,2.122
387.385,2.116
387.610,2.115
387.836,2.112
388.063,2.114
388.289,2.121
388.517,2.129
388.744,2.136
388.972,2.150
389.201,2.158
389.430,2.164
389.659,2.165
389.889,2.174
390.119,2.187
390.349,2.202
390.580,2.215
390.811,2.222
391.042,2.221
391.274,2.219
391.507,2.223
391.739,2.227
391.972,2.226
392.205,2.231
392.439,2.242
392.673,2.254
392.907,2.266
393.142,2.283
393.377,2.302
393.612,2.318
393.848,2.323
394.084,2.328
394.320,2.328
394.557,2.333
394.794,2.334
395.031,2.346
395.269,2.356
395.507,2.367
395.745,2.368
395.983,2.376
396.222,2.386
396.461,2.407
396.700,2.427
396.940,2.442
397.180,2.440
397.420,2.426
397.660,2.413
397.901,2.407
398.142,2.412
398.383,2.413
398.625,2.409
398.866,2.415
399.108,2.440
399.351,2.481
399.593,2.497
399.836,2.497
400.079,2.483
400.322,2.477
400.566,2.468
400.809,2.464
401.053,2.469
401.298,2.483
401.542,2.499
401.787,2.513
402.031,2.520
402.277,2.528
402.522,2.529
402.767,2.533
403.013,2.526
403.259,2.531
403.505,2.536
403.752,2.547
403.998,2.551
404.245,2.569
404.492,2.587
404.739,2.604
404.986,2.610
405.234,2.615
405.482,2.616
405.730,2.614
405.978,2.618
406.226,2.624
406.475,2.621
406.723,2.619
406.972,2.627
407.221,2.647
407.470,2.662
407.720,2.671
407.969,2.666
408.219,2.669
408.469,2.674
408.719,2.687
408.969,2.690
409.219,2.698
409.470,2.705
409.720,2.719
409.971,2.728
410.222,2.744
410.473,2.745
410.724,2.748
410.976,2.750
411.227,2.766
411.479,2.774
411.731,2.780
411.983,2.778
412.235,2.781
412.487,2.780
412.740,2.786
412.992,2.792
413.245,2.801
413.497,2.801
413.750,2.802
414.003,2.795
414.257,2.789
414.510,2.782
414.763,2.793
415.017,2.806
415.270,2.814
415.524,2.810
415.778,2.809
416.032,2.811
416.286,2.828
416.540,2.837
416.794,2.847
417.049,2.844
417.303,2.846
417.558,2.848
417.812,2.850
418.067,2.850
418.322,2.852
418.577,2.851
418.832,2.851
419.088,2.842
419.343,2.842
419.598,2.835
419.854,2.837
420.109,2.839
420.365,2.858
420.621,2.869
420.876,2.881
421.132,2.882
421.388,2.884
421.645,2.883
421.901,2.891
422.157,2.903
422.413,2.916
422.670,2.922
422.926,2.929
423.183,2.930
423.439,2.947
423.696,2.967
423.953,3.011
424.210,3.045
424.467,3.068
424.724,3.069
424.981,3.070
425.238,3.090
425.495,3.130
425.753,3.169
426.010,3.203
426.267,3.232
426.525,3.280
426.782,3.328
427.040,3.384
427.298,3.434
427.555,3.496
427.813,3.551
428.071,3.611
428.329,3.671
428.587,3.736
428.845,3.801
429.103,3.873
429.361,3.949
429.619,4.038
429.878,4.132
430.136,4.239
430.394,4.337
430.653,4.456
430.911,4.591
431.170,4.740
431.428,4.877
431.687,5.008
431.946,5.138
432.204,5.282
432.463,5.433
432.722,5.600
432.981,5.769
433.240,5.960
433.499,6.161
433.758,6.384
434.017,6.594
434.276,6.812
434.535,7.028
434.794,7.261
435.053,7.508
435.312,7.779
435.572,8.063
435.831,8.358
436.090,8.660
436.350,8.979
436.609,9.310
436.869,9.655
437.128,10.004
437.388,10.361
437.647,10.733
437.907,11.132
438.166,11.540
438.426,11.960
438.686,12.388
438.946,12.843
439.205,13.312
439.465,13.812
439.725,14.340
439.985,14.900
440.245,15.465
440.505,16.047
440.765,16.644
441.025,17.264
441.285,17.904
441.545,18.568
441.805,19.250
442.065,19.959
442.325,20.700
442.585,21.502
442.846,22.342
443.106,23.247
443.366,24.191
443.626,25.185
443.887,26.216
444.147,27.289
444.407,28.405
444.668,29.572
444.928,30.792
445.189,32.077
445.449,33.415
445.710,34.822
445.970,36.299
446.231,37.859
446.491,39.486
446.752,41.175
447.012,42.901
447.273,44.693
447.534,46.546
447.794,48.447
448.055,50.377
448.316,52.365
448.577,54.448
448.837,56.613
449.098,58.821
449.359,61.041
449.620,63.251
449.881,65.459
450.142,67.648
450.403,69.871
450.664,72.107
450.924,74.351
451.185,76.558
451.446,78.709
451.707,80.778
451.969,82.700
452.230,84.386
452.491,85.788
452.752,86.923
453.013,87.876
453.274,88.708
453.535,89.434
453.796,90.065
454.058,90.603
454.319,91.060
454.580,91.430
454.841,91.719
455.103,91.930
455.364,92.085
455.625,92.188
455.887,92.249
456.148,92.255
456.409,92.202
456.671,92.097
456.932,91.946
457.194,91.743
457.455,91.495
457.716,91.183
457.978,90.804
458.239,90.352
458.501,89.846
458.763,89.271
459.024,88.631
459.286,87.895
459.547,87.067
459.809,86.068
460.071,84.863
460.332,83.446
460.594,81.858
460.856,80.171
461.117,78.413
461.379,76.651
461.641,74.884
461.903,73.134
462.164,71.413
462.426,69.740
462.688,68.110
462.950,66.500
463.212,64.913
463.474,63.363
463.736,61.860
463.998,60.428
464.260,59.081
464.522,57.824
464.784,56.628
465.046,55.478
465.308,54.387
465.570,53.341
465.832,52.347
466.094,51.392
466.356,50.472
466.618,49.584
466.880,48.696
467.142,47.836
467.405,46.992
467.667,46.194
467.929,45.418
468.191,44.668
468.454,43.914
468.716,43.168
468.978,42.383
469.241,41.584
469.503,40.780
469.765,40.014
470.028,39.262
470.290,38.519
470.552,37.761
470.815,37.007
471.077,36.241
471.340,35.489
471.602,34.735
471.865,33.987
472.128,33.229
472.390,32.499
472.653,31.773
472.915,31.059
473.178,30.331
473.441,29.611
473.703,28.879
473.966,28.141
474.229,27.402
474.492,26.676
474.755,25.958
475.017,25.255
475.280,24.577
475.543,23.919
475.806,23.270
476.069,22.624
476.332,21.976
476.595,21.354
476.858,20.746
477.121,20.163
477.384,19.597
477.647,19.063
477.910,18.553
478.173,18.052
478.436,17.553
478.699,17.076
478.962,16.626
479.226,16.209
479.489,15.788
479.752,15.373
480.015,14.957
480.279,14.575
480.542,14.204
480.805,13.852
481.069,13.493
481.332,13.151
481.595,12.824
481.859,12.540
482.122,12.256
482.386,11.979
482.649,11.689
482.913,11.409
483.177,11.121
483.440,10.840
483.704,10.575
483.967,10.345
484.231,10.125
484.495,9.918
484.759,9.701
485.022,9.473
485.286,9.229
485.550,8.993
485.814,8.762
486.078,8.547
486.342,8.335
486.606,8.151
486.869,7.965
487.133,7.787
487.397,7.600
487.662,7.424
487.926,7.243
488.190,7.076
488.454,6.897
488.718,6.729
488.982,6.543
489.246,6.363
489.511,6.176
489.775,6.003
490.039,5.836
490.304,5.677
490.568,5.512
490.832,5.363
491.097,5.228
491.361,5.112
491.626,4.986
491.890,4.860
492.155,4.720
492.419,4.600
492.684,4.471
492.949,4.353
493.213,4.233
493.478,4.141
493.743,4.044
494.008,3.934
494.272,3.811
494.537,3.717
494.802,3.636
495.067,3.568
495.332,3.496
495.597,3.437
495.862,3.368
496.127,3.306
496.392,3.234
496.657,3.161
496.922,3.078
497.187,3.006
497.452,2.945
497.718,2.903
497.983,2.855
498.248,2.807
498.513,2.750
498.779,2.712
499.044,2.680
499.310,2.642
499.575,2.588
499.841,2.540
500.106,2.501
500.372,2.469
500.637,2.438
500.903,2.419
501.168,2.394
501.434,2.362
501.700,2.314
501.966,2.279
502.231,2.243
502.497,2.215
502.763,2.185
503.029,2.158
503.295,2.134
503.561,2.113
503.827,2.100
504.093,2.088
504.359,2.073
504.625,2.060
504.891,2.042
505.157,2.030
505.423,2.004
505.690,1.974
505.956,1.949
506.222,1.945
506.489,1.957
506.755,1.964
507.021,1.959
507.288,1.946
507.554,1.926
507.821,1.909
508.087,1.895
508.354,1.893
508.621,1.885
508.887,1.870
509.154,1.855
509.421,1.845
509.687,1.831
509.954,1.814
510.221,1.795
510.488,1.792
510.755,1.794
511.022,1.802
511.289,1.795
511.556,1.781
511.823,1.765
512.090,1.764
512.357,1.758
512.624,1.752
512.891,1.741
513.159,1.730
513.426,1.714
513.693,1.700
513.960,1.693
514.228,1.696
514.495,1.699
514.763,1.697
515.030,1.690
515.298,1.678
515.565,1.675
515.833,1.673
516.100,1.671
516.368,1.665
516.636,1.658
516.904,1.657
517.171,1.649
517.439,1.646
517.707,1.638
517.975,1.638
518.243,1.638
518.511,1.635
518.779,1.618
519.047,1.612
519.315,1.609
519.583,1.610
519.851,1.596
520.119,1.584
520.387,1.580
520.656,1.579
520.924,1.580
521.192,1.585
521.461,1.591
521.729,1.600
521.997,1.605
522.266,1.607
522.534,1.602
522.803,1.597
523.071,1.589
523.340,1.570
523.609,1.550
523.877,1.541
524.146,1.544
524.415,1.554
524.684,1.560
524.952,1.558
525.221,1.558
525.490,1.564
525.759,1.575
526.028,1.575
526.297,1.558
526.566,1.543
526.835,1.532
527.104,1.531
527.373,1.532
527.642,1.533
527.912,1.523
528.181,1.512
528.450,1.504
528.719,1.512
528.989,1.530
529.258,1.552
529.528,1.557
529.797,1.551
530.067,1.546
530.336,1.544
530.606,1.538
530.875,1.524
531.145,1.518
531.414,1.519
531.684,1.528
531.954,1.526
532.224,1.514
532.493,1.490
532.763,1.474
533.033,1.474
533.303,1.484
533.573,1.495
533.843,1.492
534.113,1.489
534.383,1.482
534.653,1.483
534.923,1.490
535.193,1.498
535.463,1.514
535.733,1.523
536.004,1.530
536.274,1.526
536.544,1.514
536.814,1.499
537.085,1.487
537.355,1.492
537.626,1.511
537.896,1.525
538.166,1.530
538.437,1.525
538.707,1.518
538.978,1.518
539.249,1.531
539.519,1.541
539.790,1.533
540.061,1.518
540.331,1.521
540.602,1.544
540.873,1.561
541.144,1.567
541.414,1.560
541.685,1.557
541.956,1.550
542.227,1.545
542.498,1.534
542.769,1.525
543.040,1.528
543.311,1.545
543.582,1.568
543.853,1.579
544.124,1.581
544.396,1.579
544.667,1.576
544.938,1.571
545.209,1.544
545.480,1.523
545.752,1.509
546.023,1.519
546.294,1.514
546.566,1.501
546.837,1.486
547.109,1.481
547.380,1.479
547.652,1.474
547.923,1.470
548.195,1.477
548.466,1.493
548.738,1.510
549.009,1.507
549.281,1.495
549.553,1.476
549.824,1.458
550.096,1.447
550.368,1.445
550.640,1.451
550.911,1.460
551.183,1.479
551.455,1.506
551.727,1.524
551.999,1.518
552.271,1.499
552.543,1.482
552.815,1.475
553.087,1.478
553.359,1.481
553.631,1.482
553.903,1.477
554.175,1.480
554.447,1.487
554.719,1.493
554.991,1.493
555.263,1.489
555.535,1.483
555.808,1.476
556.080,1.467
556.352,1.464
556.624,1.463
556.897,1.463
557.169,1.461
557.441,1.454
557.714,1.445
557.986,1.443
558.258,1.441
558.531,1.450
558.803,1.454
559.076,1.459
559.348,1.452
559.621,1.446
559.893,1.447
560.166,1.449
560.438,1.447
560.711,1.440
560.983,1.439
561.256,1.442
561.528,1.451
561.801,1.460
562.074,1.469
562.346,1.480
562.619,1.489
562.892,1.489
563.164,1.481
563.437,1.477
563.710,1.473
563.983,1.461
564.255,1.446
564.528,1.447
564.801,1.463
565.074,1.476
565.346,1.472
565.619,1.467
565.892,1.469
566.165,1.470
566.438,1.458
566.711,1.444
566.984,1.437
567.257,1.437
567.529,1.443
567.802,1.457
568.075,1.474
568.348,1.474
568.621,1.467
568.894,1.456
569.167,1.453
569.440,1.447
569.713,1.438
569.986,1.433
570.259,1.430
570.532,1.437
570.805,1.443
571.078,1.447
571.351,1.452
571.625,1.455
571.898,1.450
572.171,1.438
572.444,1.427
572.717,1.435
572.990,1.450
573.263,1.453
573.536,1.440
573.809,1.419
574.083,1.411
574.356,1.418
574.629,1.439
574.902,1.452
575.175,1.452
575.448,1.440
575.721,1.432
575.995,1.430
576.268,1.430
576.541,1.437
576.814,1.447
577.087,1.455
577.361,1.456
577.634,1.453
577.907,1.443
578.180,1.430
578.453,1.423
578.727,1.425
579.000,1.432
579.273,1.439
579.546,1.452
579.820,1.464
580.093,1.465
580.366,1.451
580.639,1.436
580.913,1.429
581.186,1.431
581.459,1.431
581.732,1.421
582.005,1.412
582.279,1.408
582.552,1.416
582.825,1.424
583.098,1.433
583.372,1.441
583.645,1.445
583.918,1.450
584.191,1.451
584.464,1.446
584.738,1.439
585.011,1.432
585.284,1.427
585.557,1.425
585.831,1.429
586.104,1.444
586.377,1.467
586.650,1.477
586.923,1.474
587.196,1.462
587.470,1.448
587.743,1.441
588.016,1.439
588.289,1.444
588.562,1.453
588.835,1.456
589.109,1.450
589.382,1.434
589.655,1.421
589.928,1.416
590.201,1.419
590.474,1.431
590.747,1.445
591.020,1.457
591.293,1.462
591.567,1.463
591.840,1.455
592.113,1.446
592.386,1.432
592.659,1.423
592.932,1.420
593.205,1.426
593.478,1.430
593.751,1.426
594.024,1.421
594.297,1.412
594.570,1.410
594.843,1.414
595.116,1.426
595.389,1.435
595.662,1.432
595.934,1.433
596.207,1.442
596.480,1.454
596.753,1.463
597.026,1.461
597.299,1.456
597.572,1.448
597.844,1.439
598.117,1.426
598.390,1.422
598.663,1.423
598.936,1.427
599.208,1.428
599.481,1.432
599.754,1.434
600.026,1.425
600.299,1.413
600.572,1.405
600.844,1.405
601.117,1.402
601.390,1.399
601.662,1.397
601.935,1.398
602.207,1.404
602.480,1.411
602.752,1.415
603.025,1.407
603.297,1.404
603.570,1.411
603.842,1.428
604.115,1.442
604.387,1.449
604.660,1.444
604.932,1.439
605.204,1.441
605.477,1.452
605.749,1.466
606.021,1.473
606.294,1.473
606.566,1.462
606.838,1.455
607.110,1.458
607.383,1.467
607.655,1.472
607.927,1.476
608.199,1.480
608.471,1.483
608.743,1.480
609.015,1.476
609.287,1.473
609.559,1.474
609.831,1.478
610.103,1.480
610.375,1.478
610.647,1.468
610.919,1.454
611.191,1.447
611.463,1.447
611.735,1.448
612.007,1.440
612.278,1.430
612.550,1.425
612.822,1.432
613.094,1.443
613.365,1.451
613.637,1.456
613.909,1.457
614.180,1.455
614.452,1.449
614.723,1.440
614.995,1.429
615.266,1.424
615.538,1.433
615.809,1.444
616.081,1.443
616.352,1.428
616.623,1.420
616.895,1.420
617.166,1.425
617.437,1.427
617.709,1.431
617.980,1.436
618.251,1.441
618.522,1.447
618.793,1.457
619.065,1.475
619.336,1.471
619.607,1.453
619.878,1.436
620.149,1.437
620.420,1.440
620.691,1.438
620.962,1.440
621.232,1.450
621.503,1.449
621.774,1.439
622.045,1.429
622.316,1.437
622.586,1.452
622.857,1.469
623.128,1.473
623.398,1.471
623.669,1.460
623.940,1.447
624.210,1.433
624.481,1.433
624.751,1.439
625.021,1.439
625.292,1.431
625.562,1.427
625.833,1.426
626.103,1.420
626.373,1.410
626.643,1.411
626.914,1.418
627.184,1.427
627.454,1.428
627.724,1.429
627.994,1.429
628.264,1.429
628.534,1.422
628.804,1.415
629.074,1.417
629.344,1.428
629.614,1.437
629.884,1.434
630.154,1.423
630.424,1.409
630.693,1.395
630.963,1.383
631.233,1.376
631.502,1.381
631.772,1.397
632.041,1.413
632.311,1.422
632.581,1.424
632.850,1.420
633.119,1.407
633.389,1.391
633.658,1.380
633.928,1.383
634.197,1.395
634.466,1.412
634.735,1.425
635.004,1.425
635.274,1.417
635.543,1.407
635.812,1.405
636.081,1.406
636.350,1.407
636.619,1.408
636.888,1.411
637.157,1.415
637.426,1.422
637.694,1.426
637.963,1.424
638.232,1.415
638.501,1.405
638.769,1.405
639.038,1.411
639.307,1.423
639.575,1.430
639.844,1.425
640.112,1.413
640.381,1.397
640.649,1.394
640.917,1.397
641.186,1.402
641.454,1.407
641.722,1.410
641.991,1.415
642.259,1.411
642.527,1.407
642.795,1.401
643.063,1.392
643.331,1.385
643.599,1.383
643.867,1.395
644.135,1.404
644.403,1.412
644.671,1.411
644.939,1.415
645.206,1.417
645.474,1.422
645.742,1.418
646.009,1.407
646.277,1.401
646.545,1.403
646.812,1.416
647.080,1.428
647.347,1.436
647.615,1.430
647.882,1.412
648.149,1.393
648.417,1.383
648.684,1.390
648.951,1.402
649.219,1.411
649.486,1.410
649.753,1.402
650.020,1.391
650.287,1.384
650.554,1.384
650.821,1.388
651.088,1.390
651.355,1.400
651.622,1.408
651.889,1.412
652.155,1.401
652.422,1.395
652.689,1.399
652.956,1.406
653.222,1.417
653.489,1.432
653.755,1.445
654.022,1.443
654.288,1.425
654.555,1.408
654.821,1.402
655.088,1.407
655.354,1.415
655.620,1.426
655.887,1.433
656.153,1.440
656.419,1.441
656.685,1.441
656.951,1.439
657.217,1.433
657.483,1.424
657.749,1.416
658.015,1.410
658.281,1.409
658.547,1.404
658.813,1.398
659.079,1.390
659.345,1.384
659.610,1.383
659.876,1.384
660.142,1.385
660.407,1.388
660.673,1.394
660.939,1.402
661.204,1.400
661.470,1.393
661.735,1.388
662.000,1.390
662.266,1.393
662.531,1.390
662.796,1.385
663.062,1.378
663.327,1.375
663.592,1.380
663.857,1.389
664.122,1.394
664.388,1.394
664.653,1.397
664.918,1.403
665.183,1.402
665.448,1.403
665.712,1.406
665.977,1.415
666.242,1.417
666.507,1.402
666.772,1.386
667.037,1.375
667.301,1.380
667.566,1.384
667.831,1.391
668.095,1.394
668.360,1.397
668.624,1.393
668.889,1.393
669.153,1.387
669.418,1.386
669.682,1.387
669.946,1.394
670.211,1.406
670.475,1.417
670.739,1.430
671.004,1.442
671.268,1.474
671.532,1.508
671.796,1.501
672.060,1.470
672.324,1.440
672.588,1.445
672.852,1.461
673.116,1.504
673.380,1.541
673.644,1.520
673.908,1.463
674.172,1.409
674.436,1.406
674.700,1.405
674.963,1.407
675.227,1.411
675.491,1.408
675.754,1.406
676.018,1.402
676.282,1.407
676.545,1.407
676.809,1.403
677.072,1.394
677.336,1.386
677.599,1.384
677.863,1.381
678.126,1.382
678.389,1.390
678.653,1.403
678.916,1.410
679.179,1.400
679.442,1.393
679.706,1.393
679.969,1.399
680.232,1.406
680.495,1.417
680.758,1.426
681.021,1.426
681.284,1.412
681.547,1.400
681.810,1.404
682.073,1.420
682.336,1.432
682.599,1.432
682.862,1.424
683.125,1.422
683.388,1.421
683.651,1.420
683.913,1.413
684.176,1.400
684.439,1.382
684.702,1.369
684.964,1.366
685.227,1.375
685.490,1.390
685.752,1.407
686.015,1.412
686.277,1.409
686.540,1.401
686.802,1.393
687.065,1.394
687.327,1.399
687.590,1.404
687.852,1.399
688.115,1.386
688.377,1.379
688.639,1.376
688.902,1.378
689.164,1.384
689.426,1.399
689.689,1.412
689.951,1.414
690.213,1.408
690.475,1.404
690.737,1.402
691.000,1.395
691.262,1.391
691.524,1.399
691.786,1.417
692.048,1.429
692.310,1.426
692.572,1.407
692.834,1.388
693.096,1.384
693.358,1.398
693.620,1.417
693.882,1.432
694.144,1.436
694.406,1.428
694.668,1.418
694.930,1.408
695.192,1.403
695.453,1.401
695.715,1.405
695.977,1.404
696.239,1.399
696.501,1.397
696.762,1.405
697.024,1.409
697.286,1.405
697.548,1.399
697.809,1.395
698.071,1.392
698.333,1.390
698.594,1.390
698.856,1.397
699.118,1.403
699.379,1.408
699.641,1.414
699.902,1.424
700.164,1.427
700.426,1.420
700.687,1.406
700.949,1.400
701.210,1.398
701.472,1.396
701.733,1.389
701.995,1.385
702.256,1.386
702.518,1.391
702.779,1.394
703.041,1.405
703.302,1.416
703.563,1.415
703.825,1.405
704.086,1.394
704.348,1.393
704.609,1.397
704.871,1.409
705.132,1.422
705.393,1.418
705.655,1.411
705.916,1.403
706.177,1.404
706.439,1.405
706.700,1.405
706.961,1.406
707.223,1.404
707.484,1.389
707.745,1.375
708.007,1.363
708.268,1.353
708.529,1.341
708.790,1.322
709.052,1.314
709.313,1.315
709.574,1.322
709.835,1.327
710.097,1.322
710.358,1.307
710.619,1.291
710.881,1.276
711.142,1.268
711.403,1.264
711.664,1.266
711.926,1.263
712.187,1.267
712.448,1.275
712.709,1.290
712.970,1.301
713.232,1.307
713.493,1.311
713.754,1.311
714.015,1.315
714.277,1.323
714.538,1.333
714.799,1.345
715.060,1.348
715.322,1.346
715.583,1.335
715.844,1.323
716.105,1.312
716.367,1.303
716.628,1.301
716.889,1.301
717.150,1.298
717.411,1.292
717.673,1.293
717.934,1.299
718.195,1.305
718.457,1.299
718.718,1.289
718.979,1.284
719.240,1.289
719.502,1.299
719.763,1.306
720.024,1.311
720.286,1.313
720.547,1.309
720.808,1.300
721.069,1.295
721.331,1.299
721.592,1.313
721.853,1.320
722.115,1.323
722.376,1.319
722.638,1.316
722.899,1.315
723.160,1.309
723.422,1.301
723.683,1.294
723.944,1.295
724.206,1.299
724.467,1.301
724.729,1.300
724.990,1.305
725.252,1.310
725.513,1.306
725.775,1.291
726.036,1.280
726.298,1.279
726.559,1.286
726.821,1.290
727.082,1.293
727.344,1.294
727.605,1.292
727.867,1.287
728.128,1.285
728.390,1.287
728.652,1.301
728.913,1.318
729.175,1.329
729.436,1.328
729.698,1.325
729.960,1.320
730.221,1.314
730.483,1.301
730.745,1.297
731.007,1.297
731.268,1.298
731.530,1.298
731.792,1.298
732.054,1.302
732.315,1.303
732.577,1.302
732.839,1.292
733.101,1.281
733.363,1.274
733.625,1.275
733.887,1.280
734.149,1.283
734.411,1.286
734.673,1.291
734.935,1.295
735.197,1.293
735.459,1.297
735.721,1.300
735.983,1.298
736.245,1.285
736.507,1.281
736.769,1.289
737.031,1.301
737.293,1.298
737.555,1.289
737.818,1.279
738.080,1.277
738.342,1.279
738.604,1.282
738.867,1.283
739.129,1.281
739.391,1.278
739.654,1.278
739.916,1.279
740.178,1.283
740.441,1.293
740.703,1.300
740.966,1.299
741.228,1.294
741.491,1.293
741.753,1.302
742.016,1.304
742.278,1.301
742.541,1.297
742.804,1.298
743.066,1.305
743.329,1.309
743.592,1.307
743.854,1.305
744.117,1.309
744.380,1.314
744.643,1.312
744.905,1.302
745.168,1.297
745.431,1.293
745.694,1.289
745.957,1.283
746.220,1.277
746.483,1.273
746.746,1.274
747.009,1.284
747.272,1.304
747.535,1.322
747.798,1.327
748.061,1.315
748.324,1.298
748.588,1.287
748.851,1.282
749.114,1.283
749.377,1.287
749.641,1.291
749.904,1.298
750.167,1.307
750.431,1.317
750.694,1.327
750.958,1.330
751.221,1.323
751.485,1.305
751.748,1.293
752.012,1.294
752.275,1.312
752.539,1.322
752.803,1.320
753.066,1.306
753.330,1.294
753.594,1.288
753.857,1.286
754.121,1.290
754.385,1.299
754.649,1.305
754.913,1.308
755.177,1.310
755.441,1.305
755.705,1.295
755.969,1.284
756.233,1.288
756.497,1.294
756.761,1.296
757.025,1.292
757.289,1.288
757.553,1.288
757.818,1.291
758.082,1.297
758.346,1.299
758.610,1.300
758.875,1.300
759.139,1.302
759.404,1.299
759.668,1.293
759.932,1.293
760.197,1.301
760.462,1.309
760.726,1.310
760.991,1.308
761.255,1.307
761.520,1.307
761.785,1.299
762.049,1.284
762.314,1.275
762.579,1.282
762.844,1.298
763.109,1.308
763.374,1.307
763.639,1.301
763.903,1.292
764.168,1.284
764.433,1.280
764.699,1.290
764.964,1.299
765.229,1.302
765.494,1.297
765.759,1.295
766.024,1.297
766.290,1.303
766.555,1.309
766.820,1.312
767.086,1.312
767.351,1.308
767.616,1.303
767.882,1.296
768.147,1.291
768.413,1.288
768.678,1.287
768.944,1.291
769.209,1.300
769.475,1.313
769.741,1.325
770.006,1.331
770.272,1.331
770.538,1.325
770.804,1.317
771.070,1.312
771.335,1.316
771.601,1.324
771.867,1.329
772.133,1.325
772.399,1.318
772.665,1.309
772.931,1.308
773.197,1.314
773.464,1.324
773.730,1.333
773.996,1.335
774.262,1.338
774.528,1.333
774.795,1.330
775.061,1.333
775.327,1.335
775.594,1.330
775.860,1.314
776.126,1.296
776.393,1.285
776.659,1.283
776.926,1.284
777.193,1.288
777.459,1.290
777.726,1.289
777.992,1.285
778.259,1.277
778.526,1.280
778.793,1.282
779.059,1.289
779.326,1.292
779.593,1.296
779.860,1.302
780.127,1.306
780.394,1.308
780.661,1.309
780.928,1.309
781.195,1.303
781.462,1.295
781.729,1.293
781.996,1.295
782.263,1.298
782.530,1.307
782.797,1.311
783.064,1.304
783.332,1.293
783.599,1.284
783.866,1.286
784.134,1.287
784.401,1.290
784.668,1.294
784.936,1.297
785.203,1.294
785.470,1.287
785.738,1.283
786.005,1.281
786.273,1.278
786.541,1.273
786.808,1.273
787.076,1.278
787.343,1.285
787.611,1.295
787.879,1.306
788.146,1.311
788.414,1.311
788.682,1.302
788.950,1.300
789.217,1.302
789.485,1.314
789.753,1.322
790.021,1.315
790.289,1.297
790.557,1.280
790.825,1.274
791.093,1.281
791.361,1.293
791.629,1.306
791.897,1.313
792.165,1.311
792.433,1.303
792.701,1.291
792.969,1.278
793.237,1.268
793.505,1.272
793.773,1.284
794.042,1.289
794.310,1.285
794.578,1.279
794.846,1.278
795.115,1.277
795.383,1.277
795.651,1.283
795.920,1.286
796.188,1.287
796.456,1.290
796.725,1.297
796.993,1.311
797.261,1.318
797.530,1.317
797.798,1.311
798.067,1.313
798.335,1.324
798.604,1.323
798.872,1.307
799.141,1.291
799.409,1.286
799.678,1.289
799.946,1.292
800.215,1.294
800.483,1.292
800.752,1.289
801.020,1.285
801.289,1.287
801.558,1.293
801.826,1.297
802.095,1.292
802.363,1.288
802.632,1.290
802.901,1.297
803.169,1.302
803.438,1.300
803.707,1.291
803.976,1.279
804.244,1.274
804.513,1.277
804.782,1.275
805.050,1.272
805.319,1.275
805.588,1.286
805.857,1.297
806.125,1.302
806.394,1.300
806.663,1.291
806.931,1.282
807.200,1.280
807.469,1.284
807.738,1.286
808.006,1.286
808.275,1.291
808.544,1.306
808.813,1.321
809.082,1.321
809.350,1.310
809.619,1.298
809.888,1.290
810.157,1.284
810.425,1.283
810.694,1.287
810.963,1.295
811.232,1.293
811.500,1.282
811.769,1.269
812.038,1.267
812.306,1.276
812.575,1.289
812.844,1.297
813.113,1.298
813.381,1.292
813.650,1.293
813.919,1.301
814.187,1.312
814.456,1.317
814.725,1.316
814.993,1.310
815.262,1.304
815.531,1.301
815.799,1.301
816.068,1.294
816.336,1.282
816.605,1.276
816.873,1.281
817.142,1.293
817.411,1.305
817.679,1.312
817.948,1.322
818.216,1.336
818.485,1.365
818.753,1.386
819.021,1.367
819.290,1.324
819.558,1.289
819.827,1.292
820.095,1.302
820.363,1.304
820.632,1.297
820.900,1.294
821.168,1.298
821.437,1.307
821.705,1.312
821.973,1.315
822.241,1.318
822.509,1.318
822.777,1.312
823.046,1.305
823.314,1.308
823.582,1.314
823.850,1.317
824.118,1.317
824.386,1.314
824.654,1.299
824.922,1.281
825.190,1.270
825.457,1.278
825.725,1.290
825.993,1.291
826.261,1.287
826.529,1.286
826.796,1.289
827.064,1.288
827.332,1.287
827.599,1.290
827.867,1.300
828.134,1.303
828.402,1.296
828.669,1.284
828.937,1.280
829.204,1.294
829.471,1.317
829.739,1.332
830.006,1.331
830.273,1.318
830.540,1.302
830.807,1.291
831.075,1.291
831.342,1.302
831.609,1.310
831.876,1.311
832.142,1.311
832.409,1.313
832.676,1.309
832.943,1.297
833.210,1.286
833.476,1.286
833.743,1.294
834.010,1.299
834.276,1.291
834.543,1.282
834.809,1.282
835.076,1.288
835.342,1.291
835.608,1.298
835.874,1.308
836.141,1.309
836.407,1.301
836.673,1.289
836.939,1.287
837.205,1.286
837.471,1.289
837.737,1.290
838.002,1.291
838.268,1.292
838.534,1.298
838.799,1.300
839.065,1.305
839.330,1.304
839.596,1.303
839.861,1.304
840.127,1.308
840.392,1.313
840.657,1.316
840.922,1.325
841.187,1.332
841.452,1.332
841.717,1.327
841.982,1.318
842.247,1.307
842.511,1.298
842.776,1.297
843.041,1.299
843.305,1.296
843.570,1.291
843.834,1.285
844.098,1.282
844.362,1.280
844.627,1.277
844.891,1.278
845.155,1.283
845.419,1.293
845.682,1.300
845.946,1.304
846.210,1.305
846.474,1.304
846.737,1.306
847.001,1.303
847.264,1.293
847.527,1.284
847.790,1.283
848.054,1.289
848.317,1.288
848.580,1.285
848.843,1.285
849.105,1.297
849.368,1.311
849.631,1.321
849.893,1.327
850.156,1.338
850.418,1.343
850.680,1.327
850.943,1.308
851.205,1.303
851.467,1.305
851.729,1.301
851.991,1.296
852.252,1.298
852.514,1.303
852.776,1.304
853.037,1.306
853.298,1.301
853.560,1.290
853.821,1.276
854.082,1.265
854.343,1.271
854.604,1.290
854.865,1.317
855.126,1.334
855.386,1.344
855.647,1.344
855.907,1.337
856.168,1.322
856.428,1.307
856.688,1.302
856.948,1.292
857.208,1.282
857.468,1.278
857.727,1.287
857.987,1.296
858.247,1.303
858.506,1.313
858.765,1.316
859.024,1.304
859.284,1.288
859.543,1.278
859.801,1.273
860.060,1.272
860.319,1.282
860.577,1.298
860.836,1.311
861.094,1.320
861.352,1.321
861.611,1.316
861.869,1.304
862.127,1.298
862.384,1.301
862.642,1.305
862.900,1.315
863.157,1.322
863.414,1.322
863.672,1.309
863.929,1.294
864.186,1.288
864.443,1.290
864.699,1.293
864.956,1.292
865.212,1.283
865.469,1.279
865.725,1.286
865.981,1.301
866.237,1.312
866.493,1.313
866.749,1.304
867.005,1.296
867.260,1.287
867.516,1.282
867.771,1.277
868.026,1.280
868.282,1.293
868.536,1.302
868.791,1.299
869.046,1.289
869.301,1.285
869.555,1.293
869.809,1.309
870.064,1.319
870.318,1.326
870.572,1.329
870.826,1.315
871.079,1.299
871.333,1.288
871.586,1.292
871.840,1.294
872.093,1.290
872.346,1.296
872.599,1.310
872.852,1.329
873.105,1.339
873.357,1.333
873.610,1.322
873.862,1.318
874.114,1.322
874.366,1.327
874.618,1.322
874.870,1.307
875.121,1.289
875.373,1.282
875.624,1.284
875.876,1.288
876.127,1.288
876.378,1.284
876.629,1.284
876.879,1.287
877.130,1.291
877.381,1.288
877.631,1.278
877.881,1.271
878.131,1.277
878.381,1.294
878.631,1.315
878.881,1.325
879.130,1.323
879.380,1.312
879.629,1.303
879.878,1.296
880.127,1.293
880.376,1.296
880.625,1.304
880.873,1.314
881.122,1.321
881.370,1.321
881.618,1.313
881.866,1.301
882.114,1.290
882.362,1.287
882.610,1.293
882.857,1.301
883.105,1.302
883.352,1.291
883.599,1.278
883.846,1.269
884.093,1.267
884.340,1.270
884.586,1.283
884.833,1.296
885.079,1.301
885.325,1.297
885.571,1.294
885.817,1.294
886.063,1.303
886.309,1.312
886.554,1.323
886.800,1.331
887.045,1.334
887.290,1.324
887.535,1.306
887.780,1.298
888.025,1.305
888.270,1.321
888.514,1.332
888.758,1.335
889.003,1.328
889.247,1.309
889.491,1.304
889.735,1.309
889.978,1.322
890.222,1.318
890.465,1.308
890.709,1.296
890.952,1.288
891.195,1.283
891.438,1.281
891.681,1.278
891.923,1.277
892.166,1.280
892.408,1.283
892.651,1.280
892.893,1.274
893.135,1.273
893.377,1.279
893.619,1.285
893.861,1.296
894.102,1.306
894.344,1.324
894.585,1.342
894.826,1.351
895.067,1.340
895.308,1.325
895.549,1.311
895.790,1.303
896.031,1.294
896.271,1.296
896.512,1.306
896.752,1.317
896.992,1.314
897.232,1.304
897.472,1.296
897.712,1.308
897.952,1.328
898.191,1.337
898.431,1.333
898.670,1.330
898.910,1.333
899.149,1.342
899.388,1.348
899.627,1.348
899.866,1.336
900.105,1.320
900.343,1.316
900.582,1.321
900.820,1.328
901.059,1.337
901.297,1.341
901.535,1.326
901.773,1.301
902.011,1.279
902.249,1.270
902.487,1.270
902.725,1.273
902.963,1.282
903.200,1.283
903.438,1.280
903.675,1.280
903.912,1.288
904.150,1.301
904.387,1.303
904.624,1.293
904.861,1.280
905.098,1.275
905.334,1.282
905.571,1.283
905.808,1.284
906.045,1.291
906.281,1.300
906.518,1.305
906.754,1.309
906.990,1.311
907.227,1.310
907.463,1.298
907.699,1.289
907.935,1.292
908.171,1.302
908.407,1.303
908.643,1.299
908.879,1.298
909.115,1.309
909.350,1.319
909.586,1.326
909.822,1.326
910.057,1.333
910.293,1.349
910.528,1.361
910.764,1.358
910.999,1.353
911.235,1.343
911.470,1.341
911.706,1.330
911.941,1.326
912.176,1.316
912.412,1.306
912.647,1.303
912.882,1.310
913.117,1.316
913.352,1.314
913.588,1.305
913.823,1.298
914.058,1.295
914.293,1.296
914.528,1.291
914.763,1.285
914.999,1.283
915.234,1.287
915.469,1.295
915.704,1.297
915.939,1.294
916.174,1.287
916.409,1.289
916.645,1.303
916.880,1.317
917.115,1.323
917.350,1.314
917.586,1.306
917.821,1.304
918.056,1.316
918.292,1.325
918.527,1.326
918.763,1.316
918.998,1.308
919.234,1.314
919.469,1.328
919.705,1.335
919.940,1.328
920.176,1.322
920.412,1.328
920.648,1.330
920.884,1.325
921.120,1.312
921.356,1.305
921.592,1.300
921.828,1.295
922.065,1.296
922.301,1.306
922.537,1.318
922.774,1.322
923.011,1.310
923.247,1.297
923.484,1.297
923.721,1.308
923.958,1.319
924.195,1.317
924.433,1.309
924.670,1.293
924.908,1.279
925.145,1.280
925.383,1.294
925.621,1.311
925.859,1.321
926.097,1.325
926.335,1.322
926.574,1.323
926.813,1.324
927.051,1.325
927.290,1.323
927.529,1.330
927.769,1.344
928.008,1.350
928.248,1.332
928.487,1.314
928.727,1.308
928.967,1.321
929.208,1.333
929.448,1.334
929.689,1.325
929.930,1.307
930.171,1.292
930.413,1.286
930.654,1.290
930.896,1.287
931.138,1.281
931.380,1.273
931.623,1.281
931.865,1.295
932.108,1.309
932.352,1.318
932.595,1.321
932.839,1.323
933.083,1.317
933.327,1.309
933.571,1.298
933.816,1.299
934.061,1.306
934.307,1.310
934.552,1.301
934.798,1.295
935.045,1.294
935.291,1.297
935.538,1.299
935.785,1.304
936.033,1.312
936.281,1.322
936.529,1.327
936.777,1.325
937.026,1.313
937.275,1.302
937.525,1.290
937.775,1.283
938.025,1.276
938.276,1.274
938.527,1.275
938.778,1.277
939.030,1.278
939.282,1.279
939.535,1.282
939.788,1.287
940.041,1.286
940.295,1.284
940.550,1.286
940.804,1.296
941.059,1.306
941.315,1.302
941.571,1.291
941.828,1.281
942.085,1.279
942.342,1.282
942.600,1.283
942.858,1.284
943.117,1.280
943.377,1.278
943.636,1.275
943.897,1.275
944.158,1.280
944.419,1.289
944.681,1.294
944.944,1.298
945.207,1.300
945.470,1.306
945.734,1.308
945.999,1.314
946.264,1.322
946.530,1.329
946.797,1.327
947.064,1.321
947.331,1.312
947.600,1.302
947.869,1.294
948.138,1.288
948.408,1.284
948.679,1.284
948.950,1.287
949.222,1.284
949.495,1.280
949.768,1.283
950.043,1.296
