Wavelength (nm),Intensity ββ9.1,,C:\Users\Brend\Desktop\LED Spectras v2\Blinds\-Interference\Spectrometer Data (Alt).sp,,,ββ9.1,
379.792,1.449,,2018-07-11 15:06:54,,Integration Time,100 ms,
380.000,1.447,,Analyze Light,,Number of Scans to Average,25,
380.209,1.448,,,,Smoothing,1,
380.418,1.456
380.627,1.467
380.837,1.476
381.048,1.482
381.259,1.486
381.471,1.488
381.683,1.493
381.896,1.500
382.110,1.503
382.324,1.510
382.538,1.520
382.753,1.528
382.969,1.520
383.185,1.504
383.402,1.493
383.619,1.499
383.837,1.512
384.055,1.530
384.274,1.543
384.493,1.549
384.712,1.551
384.932,1.554
385.153,1.558
385.374,1.563
385.596,1.567
385.818,1.581
386.040,1.595
386.263,1.605
386.487,1.604
386.710,1.600
386.935,1.596
387.159,1.598
387.385,1.598
387.610,1.598
387.836,1.600
388.063,1.604
388.289,1.609
388.517,1.612
388.744,1.611
388.972,1.615
389.201,1.621
389.430,1.630
389.659,1.634
389.889,1.638
390.119,1.641
390.349,1.641
390.580,1.642
390.811,1.643
391.042,1.647
391.274,1.653
391.507,1.659
391.739,1.663
391.972,1.663
392.205,1.666
392.439,1.673
392.673,1.680
392.907,1.685
393.142,1.689
393.377,1.693
393.612,1.696
393.848,1.698
394.084,1.704
394.320,1.708
394.557,1.712
394.794,1.714
395.031,1.723
395.269,1.729
395.507,1.734
395.745,1.733
395.983,1.736
396.222,1.742
396.461,1.752
396.700,1.764
396.940,1.772
397.180,1.775
397.420,1.771
397.660,1.765
397.901,1.759
398.142,1.761
398.383,1.762
398.625,1.764
398.866,1.772
399.108,1.786
399.351,1.804
399.593,1.807
399.836,1.804
400.079,1.799
400.322,1.802
400.566,1.803
400.809,1.801
401.053,1.797
401.298,1.796
401.542,1.802
401.787,1.810
402.031,1.818
402.277,1.824
402.522,1.827
402.767,1.832
403.013,1.833
403.259,1.836
403.505,1.835
403.752,1.836
403.998,1.841
404.245,1.855
404.492,1.868
404.739,1.876
404.986,1.876
405.234,1.877
405.482,1.877
405.730,1.875
405.978,1.874
406.226,1.872
406.475,1.870
406.723,1.873
406.972,1.880
407.221,1.890
407.470,1.894
407.720,1.897
407.969,1.898
408.219,1.905
408.469,1.914
408.719,1.921
408.969,1.922
409.219,1.923
409.470,1.924
409.720,1.928
409.971,1.931
410.222,1.941
410.473,1.949
410.724,1.954
410.976,1.956
411.227,1.960
411.479,1.964
411.731,1.968
411.983,1.969
412.235,1.973
412.487,1.972
412.740,1.975
412.992,1.979
413.245,1.985
413.497,1.984
413.750,1.978
414.003,1.971
414.257,1.964
414.510,1.963
414.763,1.968
415.017,1.975
415.270,1.977
415.524,1.972
415.778,1.965
416.032,1.963
416.286,1.970
416.540,1.980
416.794,1.990
417.049,1.992
417.303,1.992
417.558,1.996
417.812,2.000
418.067,2.003
418.322,2.006
418.577,2.007
418.832,2.009
419.088,2.006
419.343,2.004
419.598,1.996
419.854,1.993
420.109,1.994
420.365,2.007
420.621,2.017
420.876,2.026
421.132,2.026
421.388,2.024
421.645,2.018
421.901,2.018
422.157,2.021
422.413,2.028
422.670,2.028
422.926,2.028
423.183,2.025
423.439,2.031
423.696,2.040
423.953,2.059
424.210,2.078
424.467,2.088
424.724,2.092
424.981,2.089
425.238,2.095
425.495,2.110
425.753,2.125
426.010,2.141
426.267,2.153
426.525,2.177
426.782,2.200
427.040,2.225
427.298,2.250
427.555,2.280
427.813,2.303
428.071,2.325
428.329,2.347
428.587,2.376
428.845,2.409
429.103,2.449
429.361,2.487
429.619,2.528
429.878,2.571
430.136,2.624
430.394,2.677
430.653,2.742
430.911,2.811
431.170,2.884
431.428,2.947
431.687,3.013
431.946,3.083
432.204,3.166
432.463,3.251
432.722,3.345
432.981,3.440
433.240,3.544
433.499,3.653
433.758,3.773
434.017,3.887
434.276,4.006
434.535,4.122
434.794,4.246
435.053,4.374
435.312,4.520
435.572,4.672
435.831,4.842
436.090,5.015
436.350,5.205
436.609,5.387
436.869,5.575
437.128,5.767
437.388,5.978
437.647,6.203
437.907,6.438
438.166,6.668
438.426,6.905
438.686,7.142
438.946,7.400
439.205,7.670
439.465,7.956
439.725,8.254
439.985,8.563
440.245,8.868
440.505,9.191
440.765,9.519
441.025,9.871
441.285,10.222
441.545,10.594
441.805,10.981
442.065,11.388
442.325,11.815
442.585,12.276
442.846,12.758
443.106,13.262
443.366,13.777
443.626,14.313
443.887,14.870
444.147,15.469
444.407,16.096
444.668,16.765
444.928,17.444
445.189,18.173
445.449,18.915
445.710,19.705
445.970,20.516
446.231,21.382
446.491,22.282
446.752,23.223
447.012,24.192
447.273,25.191
447.534,26.220
447.794,27.285
448.055,28.378
448.316,29.524
448.577,30.716
448.837,31.958
449.098,33.224
449.359,34.501
449.620,35.784
449.881,37.076
450.142,38.375
450.403,39.697
450.664,41.042
450.924,42.396
451.185,43.736
451.446,45.063
451.707,46.379
451.969,47.685
452.230,48.963
452.491,50.208
452.752,51.406
453.013,52.551
453.274,53.628
453.535,54.639
453.796,55.568
454.058,56.403
454.319,57.155
454.580,57.824
454.841,58.416
455.103,58.895
455.364,59.265
455.625,59.559
455.887,59.782
456.148,59.915
456.409,59.941
456.671,59.840
456.932,59.620
457.194,59.279
457.455,58.854
457.716,58.334
457.978,57.741
458.239,57.073
458.501,56.367
458.763,55.592
459.024,54.737
459.286,53.804
459.547,52.840
459.809,51.826
460.071,50.771
460.332,49.689
460.594,48.613
460.856,47.551
461.117,46.474
461.379,45.401
461.641,44.318
461.903,43.246
462.164,42.187
462.426,41.159
462.688,40.154
462.950,39.170
463.212,38.224
463.474,37.312
463.736,36.439
463.998,35.608
464.260,34.817
464.522,34.085
464.784,33.376
465.046,32.708
465.308,32.071
465.570,31.466
465.832,30.890
466.094,30.353
466.356,29.840
466.618,29.339
466.880,28.819
467.142,28.305
467.405,27.807
467.667,27.350
467.929,26.905
468.191,26.467
468.454,26.026
468.716,25.599
468.978,25.148
469.241,24.681
469.503,24.216
469.765,23.773
470.028,23.341
470.290,22.915
470.552,22.495
470.815,22.084
471.077,21.670
471.340,21.260
471.602,20.843
471.865,20.419
472.128,19.991
472.390,19.569
472.653,19.148
472.915,18.722
473.178,18.297
473.441,17.889
473.703,17.472
473.966,17.045
474.229,16.609
474.492,16.186
474.755,15.759
475.017,15.347
475.280,14.951
475.543,14.584
475.806,14.201
476.069,13.807
476.332,13.416
476.595,13.053
476.858,12.698
477.121,12.344
477.384,11.996
477.647,11.677
477.910,11.372
478.173,11.069
478.436,10.759
478.699,10.467
478.962,10.195
479.226,9.943
479.489,9.692
479.752,9.447
480.015,9.202
480.279,8.967
480.542,8.734
480.805,8.509
481.069,8.278
481.332,8.068
481.595,7.863
481.859,7.687
482.122,7.501
482.386,7.329
482.649,7.152
482.913,6.985
483.177,6.812
483.440,6.640
483.704,6.473
483.967,6.328
484.231,6.185
484.495,6.049
484.759,5.905
485.022,5.768
485.286,5.624
485.550,5.485
485.814,5.338
486.078,5.205
486.342,5.073
486.606,4.963
486.869,4.852
487.133,4.740
487.397,4.617
487.662,4.495
487.926,4.373
488.190,4.266
488.454,4.155
488.718,4.057
488.982,3.948
489.246,3.852
489.511,3.744
489.775,3.642
490.039,3.541
490.304,3.450
490.568,3.361
490.832,3.278
491.097,3.196
491.361,3.122
491.626,3.043
491.890,2.971
492.155,2.900
492.419,2.837
492.684,2.773
492.949,2.713
493.213,2.655
493.478,2.599
493.743,2.541
494.008,2.479
494.272,2.419
494.537,2.373
494.802,2.330
495.067,2.292
495.332,2.255
495.597,2.224
495.862,2.187
496.127,2.148
496.392,2.105
496.657,2.066
496.922,2.028
497.187,2.000
497.452,1.976
497.718,1.960
497.983,1.937
498.248,1.915
498.513,1.887
498.779,1.874
499.044,1.863
499.310,1.847
499.575,1.820
499.841,1.797
500.106,1.780
500.372,1.765
500.637,1.748
500.903,1.737
501.168,1.726
501.434,1.713
501.700,1.693
501.966,1.675
502.231,1.656
502.497,1.639
502.763,1.621
503.029,1.606
503.295,1.596
503.561,1.591
503.827,1.588
504.093,1.579
504.359,1.564
504.625,1.548
504.891,1.527
505.157,1.508
505.423,1.489
505.690,1.476
505.956,1.467
506.222,1.462
506.489,1.463
506.755,1.466
507.021,1.466
507.288,1.463
507.554,1.453
507.821,1.444
508.087,1.436
508.354,1.437
508.621,1.435
508.887,1.429
509.154,1.415
509.421,1.403
509.687,1.393
509.954,1.387
510.221,1.385
510.488,1.385
510.755,1.389
511.022,1.392
511.289,1.388
511.556,1.380
511.823,1.372
512.090,1.373
512.357,1.371
512.624,1.368
512.891,1.361
513.159,1.351
513.426,1.344
513.693,1.343
513.960,1.347
514.228,1.347
514.495,1.339
514.763,1.331
515.030,1.322
515.298,1.316
515.565,1.313
515.833,1.314
516.100,1.313
516.368,1.312
516.636,1.311
516.904,1.307
517.171,1.301
517.439,1.291
517.707,1.283
517.975,1.278
518.243,1.280
518.511,1.280
518.779,1.274
519.047,1.270
519.315,1.271
519.583,1.271
519.851,1.266
520.119,1.259
520.387,1.254
520.656,1.254
520.924,1.257
521.192,1.264
521.461,1.267
521.729,1.271
521.997,1.270
522.266,1.267
522.534,1.264
522.803,1.263
523.071,1.263
523.340,1.257
523.609,1.250
523.877,1.245
524.146,1.242
524.415,1.240
524.684,1.240
524.952,1.240
525.221,1.239
525.490,1.241
525.759,1.245
526.028,1.248
526.297,1.241
526.566,1.236
526.835,1.233
527.104,1.239
527.373,1.242
527.642,1.240
527.912,1.231
528.181,1.221
528.450,1.218
528.719,1.223
528.989,1.234
529.258,1.242
529.528,1.240
529.797,1.235
530.067,1.230
530.336,1.226
530.606,1.217
530.875,1.206
531.145,1.201
531.414,1.206
531.684,1.214
531.954,1.222
532.224,1.223
532.493,1.215
532.763,1.208
533.033,1.206
533.303,1.210
533.573,1.212
533.843,1.208
534.113,1.203
534.383,1.194
534.653,1.192
534.923,1.194
535.193,1.204
535.463,1.212
535.733,1.216
536.004,1.215
536.274,1.210
536.544,1.200
536.814,1.193
537.085,1.188
537.355,1.195
537.626,1.204
537.896,1.209
538.166,1.207
538.437,1.204
538.707,1.201
538.978,1.201
539.249,1.203
539.519,1.202
539.790,1.194
540.061,1.187
540.331,1.191
540.602,1.199
540.873,1.207
541.144,1.211
541.414,1.212
541.685,1.211
541.956,1.207
542.227,1.205
542.498,1.200
542.769,1.198
543.040,1.198
543.311,1.202
543.582,1.206
543.853,1.210
544.124,1.213
544.396,1.216
544.667,1.215
544.938,1.210
545.209,1.198
545.480,1.193
545.752,1.193
546.023,1.193
546.294,1.188
546.566,1.183
546.837,1.185
547.109,1.189
547.380,1.190
547.652,1.187
547.923,1.185
548.195,1.190
548.466,1.198
548.738,1.205
549.009,1.202
549.281,1.197
549.553,1.188
549.824,1.178
550.096,1.172
550.368,1.173
550.640,1.179
550.911,1.185
551.183,1.193
551.455,1.205
551.727,1.213
551.999,1.211
552.271,1.200
552.543,1.191
552.815,1.188
553.087,1.191
553.359,1.193
553.631,1.196
553.903,1.196
554.175,1.198
554.447,1.199
554.719,1.198
554.991,1.195
555.263,1.193
555.535,1.190
555.808,1.186
556.080,1.182
556.352,1.183
556.624,1.183
556.897,1.183
557.169,1.183
557.441,1.183
557.714,1.184
557.986,1.183
558.258,1.182
558.531,1.186
558.803,1.187
559.076,1.188
559.348,1.179
559.621,1.173
559.893,1.169
560.166,1.170
560.438,1.172
560.711,1.169
560.983,1.170
561.256,1.174
561.528,1.183
561.801,1.191
562.074,1.197
562.346,1.203
562.619,1.206
562.892,1.203
563.164,1.199
563.437,1.198
563.710,1.200
563.983,1.196
564.255,1.190
564.528,1.189
564.801,1.191
565.074,1.190
565.346,1.183
565.619,1.182
565.892,1.184
566.165,1.186
566.438,1.183
566.711,1.178
566.984,1.174
567.257,1.174
567.529,1.179
567.802,1.191
568.075,1.198
568.348,1.198
568.621,1.194
568.894,1.192
569.167,1.190
569.440,1.186
569.713,1.180
569.986,1.177
570.259,1.173
570.532,1.175
570.805,1.180
571.078,1.185
571.351,1.188
571.625,1.188
571.898,1.184
572.171,1.180
572.444,1.176
572.717,1.180
572.990,1.183
573.263,1.182
573.536,1.172
573.809,1.164
574.083,1.163
574.356,1.169
574.629,1.175
574.902,1.180
575.175,1.180
575.448,1.178
575.721,1.175
575.995,1.172
576.268,1.168
576.541,1.168
576.814,1.175
577.087,1.181
577.361,1.182
577.634,1.176
577.907,1.167
578.180,1.158
578.453,1.155
578.727,1.155
579.000,1.159
579.273,1.165
579.546,1.175
579.820,1.186
580.093,1.189
580.366,1.184
580.639,1.175
580.913,1.166
581.186,1.164
581.459,1.162
581.732,1.155
582.005,1.148
582.279,1.143
582.552,1.149
582.825,1.157
583.098,1.165
583.372,1.169
583.645,1.170
583.918,1.171
584.191,1.169
584.464,1.168
584.738,1.169
585.011,1.169
585.284,1.166
585.557,1.163
585.831,1.164
586.104,1.175
586.377,1.187
586.650,1.191
586.923,1.187
587.196,1.179
587.470,1.172
587.743,1.168
588.016,1.168
588.289,1.174
588.562,1.179
588.835,1.180
589.109,1.174
589.382,1.164
589.655,1.153
589.928,1.146
590.201,1.144
590.474,1.154
590.747,1.166
591.020,1.177
591.293,1.178
591.567,1.174
591.840,1.164
592.113,1.155
592.386,1.145
592.659,1.138
592.932,1.137
593.205,1.145
593.478,1.155
593.751,1.159
594.024,1.158
594.297,1.155
594.570,1.157
594.843,1.165
595.116,1.175
595.389,1.178
595.662,1.174
595.934,1.166
596.207,1.164
596.480,1.169
596.753,1.176
597.026,1.180
597.299,1.179
597.572,1.176
597.844,1.169
598.117,1.159
598.390,1.153
598.663,1.152
598.936,1.155
599.208,1.155
599.481,1.155
599.754,1.154
600.026,1.150
600.299,1.146
600.572,1.147
600.844,1.149
601.117,1.146
601.390,1.144
601.662,1.145
601.935,1.146
602.207,1.146
602.480,1.147
602.752,1.148
603.025,1.145
603.297,1.141
603.570,1.145
603.842,1.155
604.115,1.164
604.387,1.167
604.660,1.161
604.932,1.155
605.204,1.154
605.477,1.160
605.749,1.165
606.021,1.173
606.294,1.176
606.566,1.169
606.838,1.159
607.110,1.154
607.383,1.157
607.655,1.161
607.927,1.167
608.199,1.173
608.471,1.178
608.743,1.176
609.015,1.169
609.287,1.164
609.559,1.162
609.831,1.164
610.103,1.162
610.375,1.158
610.647,1.150
610.919,1.148
611.191,1.151
611.463,1.157
611.735,1.159
612.007,1.155
612.278,1.150
612.550,1.150
612.822,1.156
613.094,1.161
613.365,1.164
613.637,1.165
613.909,1.169
614.180,1.173
614.452,1.172
614.723,1.165
614.995,1.158
615.266,1.159
615.538,1.166
615.809,1.171
616.081,1.166
616.352,1.157
616.623,1.148
616.895,1.143
617.166,1.140
617.437,1.141
617.709,1.145
617.980,1.151
618.251,1.154
618.522,1.157
618.793,1.166
619.065,1.178
619.336,1.182
619.607,1.176
619.878,1.172
620.149,1.175
620.420,1.177
620.691,1.174
620.962,1.172
621.232,1.172
621.503,1.166
621.774,1.159
622.045,1.154
622.316,1.159
622.586,1.164
622.857,1.170
623.128,1.174
623.398,1.175
623.669,1.172
623.940,1.163
624.210,1.155
624.481,1.155
624.751,1.159
625.021,1.162
625.292,1.159
625.562,1.159
625.833,1.155
626.103,1.150
626.373,1.145
626.643,1.145
626.914,1.148
627.184,1.154
627.454,1.155
627.724,1.153
627.994,1.150
628.264,1.149
628.534,1.148
628.804,1.150
629.074,1.154
629.344,1.159
629.614,1.159
629.884,1.155
630.154,1.151
630.424,1.150
630.693,1.147
630.963,1.140
631.233,1.131
631.502,1.127
631.772,1.131
632.041,1.141
632.311,1.148
632.581,1.150
632.850,1.148
633.119,1.142
633.389,1.137
633.658,1.136
633.928,1.141
634.197,1.147
634.466,1.154
634.735,1.158
635.004,1.156
635.274,1.152
635.543,1.147
635.812,1.149
636.081,1.151
636.350,1.150
636.619,1.150
636.888,1.152
637.157,1.156
637.426,1.159
637.694,1.158
637.963,1.159
638.232,1.158
638.501,1.155
638.769,1.153
639.038,1.155
639.307,1.166
639.575,1.169
639.844,1.163
640.112,1.151
640.381,1.141
640.649,1.139
640.917,1.138
641.186,1.142
641.454,1.146
641.722,1.148
641.991,1.145
642.259,1.136
642.527,1.133
642.795,1.135
643.063,1.136
643.331,1.136
643.599,1.136
643.867,1.142
644.135,1.146
644.403,1.151
644.671,1.154
644.939,1.156
645.206,1.156
645.474,1.155
645.742,1.153
646.009,1.148
646.277,1.145
646.545,1.145
646.812,1.152
647.080,1.159
647.347,1.162
647.615,1.159
647.882,1.151
648.149,1.144
648.417,1.141
648.684,1.143
648.951,1.148
649.219,1.150
649.486,1.148
649.753,1.142
650.020,1.132
650.287,1.126
650.554,1.122
650.821,1.123
651.088,1.126
651.355,1.132
651.622,1.140
651.889,1.148
652.155,1.147
652.422,1.148
652.689,1.153
652.956,1.159
653.222,1.168
653.489,1.174
653.755,1.174
654.022,1.161
654.288,1.148
654.555,1.141
654.821,1.143
655.088,1.147
655.354,1.154
655.620,1.161
655.887,1.163
656.153,1.164
656.419,1.162
656.685,1.159
656.951,1.155
657.217,1.151
657.483,1.148
657.749,1.145
658.015,1.144
658.281,1.143
658.547,1.140
658.813,1.135
659.079,1.131
659.345,1.131
659.610,1.135
659.876,1.141
660.142,1.148
660.407,1.151
660.673,1.154
660.939,1.157
661.204,1.155
661.470,1.149
661.735,1.145
662.000,1.144
662.266,1.141
662.531,1.136
662.796,1.133
663.062,1.133
663.327,1.136
663.592,1.140
663.857,1.142
664.122,1.143
664.388,1.141
664.653,1.144
664.918,1.146
665.183,1.149
665.448,1.150
665.712,1.152
665.977,1.154
666.242,1.151
666.507,1.142
666.772,1.132
667.037,1.127
667.301,1.127
667.566,1.129
667.831,1.129
668.095,1.133
668.360,1.136
668.624,1.139
668.889,1.141
669.153,1.140
669.418,1.141
669.682,1.139
669.946,1.140
670.211,1.142
670.475,1.150
670.739,1.160
671.004,1.170
671.268,1.185
671.532,1.196
671.796,1.188
672.060,1.172
672.324,1.161
672.588,1.165
672.852,1.175
673.116,1.199
673.380,1.219
673.644,1.212
673.908,1.182
674.172,1.153
674.436,1.146
674.700,1.146
674.963,1.149
675.227,1.149
675.491,1.141
675.754,1.134
676.018,1.129
676.282,1.135
676.545,1.137
676.809,1.137
677.072,1.136
677.336,1.137
677.599,1.138
677.863,1.134
678.126,1.131
678.389,1.135
678.653,1.141
678.916,1.142
679.179,1.140
679.442,1.140
679.706,1.141
679.969,1.141
680.232,1.141
680.495,1.143
680.758,1.145
681.021,1.142
681.284,1.140
681.547,1.141
681.810,1.149
682.073,1.161
682.336,1.166
682.599,1.166
682.862,1.160
683.125,1.158
683.388,1.159
683.651,1.159
683.913,1.157
684.176,1.149
684.439,1.137
684.702,1.124
684.964,1.120
685.227,1.126
685.490,1.136
685.752,1.145
686.015,1.147
686.277,1.145
686.540,1.139
686.802,1.136
687.065,1.136
687.327,1.141
687.590,1.144
687.852,1.140
688.115,1.134
688.377,1.132
688.639,1.134
688.902,1.136
689.164,1.138
689.426,1.145
689.689,1.150
689.951,1.147
690.213,1.143
690.475,1.143
690.737,1.145
691.000,1.141
691.262,1.134
691.524,1.136
691.786,1.147
692.048,1.158
692.310,1.155
692.572,1.142
692.834,1.130
693.096,1.127
693.358,1.135
693.620,1.144
693.882,1.151
694.144,1.155
694.406,1.154
694.668,1.151
694.930,1.150
695.192,1.149
695.453,1.149
695.715,1.145
695.977,1.142
696.239,1.133
696.501,1.129
696.762,1.132
697.024,1.138
697.286,1.137
697.548,1.134
697.809,1.131
698.071,1.131
698.333,1.131
698.594,1.135
698.856,1.141
699.118,1.146
699.379,1.148
699.641,1.150
699.902,1.153
700.164,1.150
700.426,1.142
700.687,1.133
700.949,1.130
701.210,1.129
701.472,1.128
701.733,1.123
701.995,1.123
702.256,1.127
702.518,1.132
702.779,1.136
703.041,1.145
703.302,1.154
703.563,1.153
703.825,1.145
704.086,1.137
704.348,1.131
704.609,1.128
704.871,1.130
705.132,1.135
705.393,1.133
705.655,1.131
705.916,1.129
706.177,1.128
706.439,1.127
706.700,1.125
706.961,1.128
707.223,1.127
707.484,1.120
707.745,1.112
708.007,1.105
708.268,1.101
708.529,1.096
708.790,1.088
709.052,1.083
709.313,1.080
709.574,1.082
709.835,1.084
710.097,1.082
710.358,1.074
710.619,1.066
710.881,1.060
711.142,1.056
711.403,1.052
711.664,1.052
711.926,1.054
712.187,1.060
712.448,1.064
712.709,1.070
712.970,1.072
713.232,1.074
713.493,1.073
713.754,1.070
714.015,1.068
714.277,1.066
714.538,1.072
714.799,1.084
715.060,1.093
715.322,1.094
715.583,1.092
715.844,1.088
716.105,1.084
716.367,1.076
716.628,1.073
716.889,1.070
717.150,1.067
717.411,1.062
717.673,1.061
717.934,1.066
718.195,1.072
718.457,1.074
718.718,1.072
718.979,1.071
719.240,1.073
719.502,1.079
719.763,1.081
720.024,1.083
720.286,1.083
720.547,1.081
720.808,1.077
721.069,1.074
721.331,1.077
721.592,1.083
721.853,1.085
722.115,1.086
722.376,1.086
722.638,1.084
722.899,1.078
723.160,1.070
723.422,1.062
723.683,1.060
723.944,1.063
724.206,1.068
724.467,1.068
724.729,1.065
724.990,1.067
725.252,1.069
725.513,1.067
725.775,1.062
726.036,1.060
726.298,1.063
726.559,1.065
726.821,1.065
727.082,1.063
727.344,1.060
727.605,1.056
727.867,1.051
728.128,1.051
728.390,1.054
728.652,1.064
728.913,1.072
729.175,1.074
729.436,1.076
729.698,1.076
729.960,1.073
730.221,1.065
730.483,1.060
730.745,1.061
731.007,1.064
731.268,1.067
731.530,1.069
731.792,1.073
732.054,1.076
732.315,1.079
732.577,1.080
732.839,1.075
733.101,1.067
733.363,1.058
733.625,1.056
733.887,1.057
734.149,1.061
734.411,1.065
734.673,1.067
734.935,1.069
735.197,1.069
735.459,1.073
735.721,1.078
735.983,1.076
736.245,1.070
736.507,1.067
736.769,1.070
737.031,1.073
737.293,1.069
737.555,1.062
737.818,1.058
738.080,1.058
738.342,1.061
738.604,1.064
738.867,1.064
739.129,1.060
739.391,1.056
739.654,1.052
739.916,1.052
740.178,1.057
740.441,1.064
740.703,1.068
740.966,1.065
741.228,1.062
741.491,1.060
741.753,1.063
742.016,1.064
742.278,1.065
742.541,1.065
742.804,1.066
743.066,1.071
743.329,1.072
743.592,1.069
743.854,1.065
744.117,1.065
744.380,1.068
744.643,1.069
744.905,1.067
745.168,1.065
745.431,1.064
745.694,1.059
745.957,1.052
746.220,1.046
746.483,1.046
746.746,1.051
747.009,1.066
747.272,1.083
747.535,1.094
747.798,1.092
748.061,1.082
748.324,1.072
748.588,1.064
748.851,1.059
749.114,1.056
749.377,1.060
749.641,1.061
749.904,1.064
750.167,1.068
750.431,1.073
750.694,1.080
750.958,1.083
751.221,1.077
751.485,1.065
751.748,1.054
752.012,1.055
752.275,1.065
752.539,1.073
752.803,1.071
753.066,1.064
753.330,1.059
753.594,1.057
753.857,1.056
754.121,1.056
754.385,1.060
754.649,1.062
754.913,1.065
755.177,1.066
755.441,1.065
755.705,1.060
755.969,1.056
756.233,1.058
756.497,1.059
756.761,1.059
757.025,1.055
757.289,1.055
757.553,1.060
757.818,1.066
758.082,1.071
758.346,1.070
758.610,1.070
758.875,1.070
759.139,1.071
759.404,1.068
759.668,1.067
759.932,1.069
760.197,1.076
760.462,1.079
760.726,1.077
760.991,1.075
761.255,1.073
761.520,1.069
761.785,1.058
762.049,1.047
762.314,1.044
762.579,1.053
762.844,1.069
763.109,1.079
763.374,1.078
763.639,1.072
763.903,1.066
764.168,1.062
764.433,1.060
764.699,1.065
764.964,1.070
765.229,1.070
765.494,1.066
765.759,1.060
766.024,1.055
766.290,1.054
766.555,1.058
766.820,1.065
767.086,1.070
767.351,1.071
767.616,1.068
767.882,1.065
768.147,1.063
768.413,1.064
768.678,1.065
768.944,1.066
769.209,1.069
769.475,1.072
769.741,1.074
770.006,1.078
770.272,1.082
770.538,1.085
770.804,1.082
771.070,1.078
771.335,1.079
771.601,1.084
771.867,1.085
772.133,1.082
772.399,1.075
772.665,1.068
772.931,1.066
773.197,1.068
773.464,1.074
773.730,1.077
773.996,1.079
774.262,1.082
774.528,1.084
774.795,1.087
775.061,1.091
775.327,1.093
775.594,1.093
775.860,1.086
776.126,1.073
776.393,1.063
776.659,1.060
776.926,1.062
777.193,1.066
777.459,1.067
777.726,1.066
777.992,1.063
778.259,1.060
778.526,1.061
778.793,1.061
779.059,1.063
779.326,1.061
779.593,1.060
779.860,1.060
780.127,1.064
780.394,1.070
780.661,1.074
780.928,1.074
781.195,1.068
781.462,1.061
781.729,1.061
781.996,1.061
782.263,1.062
782.530,1.066
782.797,1.070
783.064,1.069
783.332,1.060
783.599,1.055
783.866,1.058
784.134,1.065
784.401,1.068
784.668,1.068
784.936,1.066
785.203,1.061
785.470,1.057
785.738,1.057
786.005,1.061
786.273,1.060
786.541,1.060
786.808,1.058
787.076,1.059
787.343,1.059
787.611,1.065
787.879,1.076
788.146,1.084
788.414,1.088
788.682,1.083
788.950,1.077
789.217,1.072
789.485,1.076
789.753,1.079
790.021,1.074
790.289,1.062
790.557,1.051
790.825,1.049
791.093,1.054
791.361,1.064
791.629,1.074
791.897,1.079
792.165,1.079
792.433,1.070
792.701,1.059
792.969,1.048
793.237,1.046
793.505,1.052
793.773,1.060
794.042,1.063
794.310,1.060
794.578,1.056
794.846,1.059
795.115,1.057
795.383,1.053
795.651,1.053
795.920,1.057
796.188,1.065
796.456,1.070
796.725,1.073
796.993,1.076
797.261,1.077
797.530,1.075
797.798,1.072
798.067,1.072
798.335,1.072
798.604,1.070
798.872,1.063
799.141,1.061
799.409,1.064
799.678,1.069
799.946,1.076
800.215,1.079
800.483,1.078
800.752,1.071
801.020,1.065
801.289,1.066
801.558,1.071
801.826,1.077
802.095,1.075
802.363,1.072
802.632,1.072
802.901,1.074
803.169,1.071
803.438,1.065
803.707,1.060
803.976,1.059
804.244,1.064
804.513,1.068
804.782,1.065
805.050,1.060
805.319,1.057
805.588,1.061
805.857,1.065
806.125,1.069
806.394,1.067
806.663,1.061
806.931,1.053
807.200,1.052
807.469,1.051
807.738,1.051
808.006,1.049
808.275,1.054
808.544,1.061
808.813,1.070
809.082,1.070
809.350,1.064
809.619,1.058
809.888,1.053
810.157,1.053
810.425,1.054
810.694,1.059
810.963,1.064
811.232,1.062
811.500,1.055
811.769,1.050
812.038,1.053
812.306,1.060
812.575,1.070
812.844,1.076
813.113,1.078
813.381,1.071
813.650,1.067
813.919,1.068
814.187,1.074
814.456,1.079
814.725,1.082
814.993,1.081
815.262,1.080
815.531,1.080
815.799,1.079
816.068,1.073
816.336,1.065
816.605,1.065
816.873,1.069
817.142,1.075
817.411,1.077
817.679,1.075
817.948,1.076
818.216,1.083
818.485,1.100
818.753,1.109
819.021,1.098
819.290,1.071
819.558,1.054
819.827,1.057
820.095,1.068
820.363,1.076
820.632,1.079
820.900,1.077
821.168,1.076
821.437,1.075
821.705,1.080
821.973,1.084
822.241,1.090
822.509,1.093
822.777,1.088
823.046,1.082
823.314,1.078
823.582,1.076
823.850,1.072
824.118,1.067
824.386,1.060
824.654,1.051
824.922,1.041
825.190,1.037
825.457,1.046
825.725,1.055
825.993,1.058
826.261,1.055
826.529,1.055
826.796,1.058
827.064,1.061
827.332,1.061
827.599,1.063
827.867,1.070
828.134,1.074
828.402,1.070
828.669,1.062
828.937,1.056
829.204,1.061
829.471,1.069
829.739,1.074
830.006,1.070
830.273,1.060
830.540,1.050
830.807,1.046
831.075,1.051
831.342,1.060
831.609,1.065
831.876,1.073
832.142,1.077
832.409,1.078
832.676,1.069
832.943,1.060
833.210,1.056
833.476,1.055
833.743,1.056
834.010,1.056
834.276,1.055
834.543,1.055
834.809,1.056
835.076,1.060
835.342,1.063
835.608,1.070
835.874,1.072
836.141,1.071
836.407,1.069
836.673,1.068
836.939,1.070
837.205,1.066
837.471,1.061
837.737,1.059
838.002,1.058
838.268,1.060
838.534,1.064
838.799,1.067
839.065,1.069
839.330,1.066
839.596,1.065
839.861,1.065
840.127,1.067
840.392,1.069
840.657,1.073
840.922,1.080
841.187,1.084
841.452,1.084
841.717,1.078
841.982,1.071
842.247,1.064
842.511,1.062
842.776,1.064
843.041,1.065
843.305,1.060
843.570,1.056
843.834,1.055
844.098,1.058
844.362,1.059
844.627,1.058
844.891,1.057
845.155,1.059
845.419,1.065
845.682,1.068
845.946,1.069
846.210,1.070
846.474,1.073
846.737,1.076
847.001,1.074
847.264,1.065
847.527,1.056
847.790,1.053
848.054,1.054
848.317,1.053
848.580,1.051
848.843,1.055
849.105,1.065
849.368,1.075
849.631,1.081
849.893,1.085
850.156,1.089
850.418,1.089
850.680,1.080
850.943,1.073
851.205,1.072
851.467,1.071
851.729,1.066
851.991,1.062
852.252,1.063
852.514,1.068
852.776,1.074
853.037,1.081
853.298,1.082
853.560,1.079
853.821,1.070
854.082,1.061
854.343,1.058
854.604,1.067
854.865,1.080
855.126,1.089
855.386,1.093
855.647,1.093
855.907,1.092
856.168,1.086
856.428,1.079
856.688,1.076
856.948,1.070
857.208,1.066
857.468,1.065
857.727,1.068
857.987,1.072
858.247,1.078
858.506,1.082
858.765,1.083
859.024,1.075
859.284,1.070
859.543,1.065
859.801,1.064
860.060,1.063
860.319,1.069
860.577,1.076
860.836,1.080
861.094,1.080
861.352,1.077
861.611,1.073
861.869,1.068
862.127,1.068
862.384,1.070
862.642,1.073
862.900,1.077
863.157,1.079
863.414,1.076
863.672,1.070
863.929,1.062
864.186,1.062
864.443,1.060
864.699,1.060
864.956,1.057
865.212,1.055
865.469,1.059
865.725,1.066
865.981,1.074
866.237,1.075
866.493,1.071
866.749,1.064
867.005,1.060
867.260,1.057
867.516,1.053
867.771,1.050
868.026,1.057
868.282,1.069
868.536,1.075
868.791,1.070
869.046,1.062
869.301,1.058
869.555,1.057
869.809,1.059
870.064,1.063
870.318,1.069
870.572,1.072
870.826,1.066
871.079,1.060
871.333,1.058
871.586,1.063
871.840,1.068
872.093,1.071
872.346,1.076
872.599,1.084
872.852,1.088
873.105,1.088
873.357,1.082
873.610,1.075
873.862,1.073
874.114,1.073
874.366,1.075
874.618,1.073
874.870,1.063
875.121,1.053
875.373,1.048
875.624,1.051
875.876,1.053
876.127,1.056
876.378,1.058
876.629,1.063
876.879,1.064
877.130,1.065
877.381,1.061
877.631,1.056
877.881,1.054
878.131,1.059
878.381,1.072
878.631,1.084
878.881,1.090
879.130,1.091
879.380,1.088
879.629,1.082
879.878,1.074
880.127,1.067
880.376,1.066
880.625,1.069
880.873,1.075
881.122,1.080
881.370,1.080
881.618,1.074
881.866,1.066
882.114,1.059
882.362,1.056
882.610,1.059
882.857,1.065
883.105,1.066
883.352,1.061
883.599,1.055
883.846,1.051
884.093,1.050
884.340,1.057
884.586,1.069
884.833,1.079
885.079,1.080
885.325,1.074
885.571,1.067
885.817,1.060
886.063,1.060
886.309,1.067
886.554,1.076
886.800,1.079
887.045,1.076
887.290,1.066
887.535,1.059
887.780,1.059
888.025,1.066
888.270,1.075
888.514,1.083
888.758,1.084
889.003,1.079
889.247,1.070
889.491,1.069
889.735,1.074
889.978,1.083
890.222,1.083
890.465,1.081
890.709,1.074
890.952,1.069
891.195,1.066
891.438,1.065
891.681,1.065
891.923,1.063
892.166,1.067
892.408,1.071
892.651,1.069
892.893,1.063
893.135,1.060
893.377,1.063
893.619,1.068
893.861,1.072
894.102,1.073
894.344,1.076
894.585,1.086
894.826,1.096
895.067,1.095
895.308,1.086
895.549,1.076
895.790,1.068
896.031,1.066
896.271,1.070
896.512,1.079
896.752,1.086
896.992,1.090
897.232,1.084
897.472,1.076
897.712,1.074
897.952,1.079
898.191,1.086
898.431,1.087
898.670,1.088
898.910,1.093
899.149,1.100
899.388,1.103
899.627,1.103
899.866,1.096
900.105,1.086
900.343,1.079
900.582,1.075
900.820,1.078
901.059,1.088
901.297,1.095
901.535,1.087
901.773,1.072
902.011,1.059
902.249,1.055
902.487,1.055
902.725,1.057
902.963,1.061
903.200,1.063
903.438,1.063
903.675,1.065
903.912,1.069
904.150,1.072
904.387,1.070
904.624,1.061
904.861,1.053
905.098,1.051
905.334,1.055
905.571,1.058
905.808,1.056
906.045,1.058
906.281,1.064
906.518,1.073
906.754,1.081
906.990,1.083
907.227,1.079
907.463,1.071
907.699,1.066
907.935,1.069
908.171,1.073
908.407,1.072
908.643,1.069
908.879,1.068
909.115,1.072
909.350,1.073
909.586,1.072
909.822,1.072
910.057,1.084
910.293,1.103
910.528,1.114
910.764,1.110
910.999,1.099
911.235,1.089
911.470,1.086
911.706,1.081
911.941,1.078
912.176,1.070
912.412,1.062
912.647,1.061
912.882,1.067
913.117,1.072
913.352,1.071
913.588,1.067
913.823,1.063
914.058,1.063
914.293,1.065
914.528,1.063
914.763,1.059
914.999,1.056
915.234,1.059
915.469,1.061
915.704,1.060
915.939,1.057
916.174,1.056
916.409,1.061
916.645,1.068
916.880,1.074
917.115,1.077
917.350,1.077
917.586,1.076
917.821,1.078
918.056,1.082
918.292,1.084
918.527,1.079
918.763,1.067
918.998,1.059
919.234,1.063
919.469,1.071
919.705,1.075
919.940,1.071
920.176,1.070
920.412,1.073
920.648,1.072
920.884,1.067
921.120,1.060
921.356,1.062
921.592,1.065
921.828,1.067
922.065,1.069
922.301,1.074
922.537,1.081
922.774,1.082
923.011,1.077
923.247,1.070
923.484,1.068
923.721,1.072
923.958,1.076
924.195,1.078
924.433,1.074
924.670,1.064
924.908,1.053
925.145,1.053
925.383,1.062
925.621,1.072
925.859,1.079
926.097,1.080
926.335,1.079
926.574,1.077
926.813,1.076
927.051,1.076
927.290,1.074
927.529,1.080
927.769,1.092
928.008,1.098
928.248,1.089
928.487,1.077
928.727,1.072
928.967,1.076
929.208,1.080
929.448,1.081
929.689,1.078
929.930,1.072
930.171,1.065
930.413,1.062
930.654,1.060
930.896,1.056
931.138,1.051
931.380,1.051
931.623,1.056
931.865,1.064
932.108,1.068
932.352,1.070
932.595,1.070
932.839,1.070
933.083,1.068
933.327,1.062
933.571,1.055
933.816,1.054
934.061,1.058
934.307,1.061
934.552,1.058
934.798,1.056
935.045,1.057
935.291,1.062
935.538,1.066
935.785,1.072
936.033,1.074
936.281,1.077
936.529,1.078
936.777,1.079
937.026,1.074
937.275,1.068
937.525,1.060
937.775,1.055
938.025,1.053
938.276,1.053
938.527,1.054
938.778,1.055
939.030,1.054
939.282,1.056
939.535,1.061
939.788,1.067
940.041,1.064
940.295,1.059
940.550,1.057
940.804,1.064
941.059,1.069
941.315,1.066
941.571,1.058
941.828,1.056
942.085,1.057
942.342,1.060
942.600,1.064
942.858,1.064
943.117,1.060
943.377,1.055
943.636,1.051
943.897,1.052
944.158,1.056
944.419,1.061
944.681,1.065
944.944,1.070
945.207,1.075
945.470,1.079
945.734,1.079
945.999,1.084
946.264,1.090
946.530,1.094
946.797,1.092
947.064,1.089
947.331,1.087
947.600,1.082
947.869,1.076
948.138,1.072
948.408,1.065
948.679,1.061
948.950,1.061
949.222,1.063
949.495,1.062
949.768,1.060
950.043,1.061
