Wavelength (nm),Intensity W5.1,,C:/Users/Brend/Desktop/LED Spectras v2/Spectrometer Data (White).sp,,,W5.1,
379.792,2.857,,2018-06-15 10:27:20,,Integration Time,326 ms,
380.000,2.851,,Analyze Light,,Number of Scans to Average,25,
380.209,2.846,,,,Smoothing,1,
380.418,2.870
380.627,2.907
380.837,2.944
381.048,2.962
381.259,2.965
381.471,2.963
381.683,2.975
381.896,3.006
382.110,3.023
382.324,3.051
382.538,3.080
382.753,3.114
382.969,3.097
383.185,3.069
383.402,3.039
383.619,3.054
383.837,3.081
384.055,3.134
384.274,3.175
384.493,3.204
384.712,3.209
384.932,3.222
385.153,3.240
385.374,3.265
385.596,3.287
385.818,3.325
386.040,3.363
386.263,3.403
386.487,3.414
386.710,3.415
386.935,3.390
387.159,3.382
387.385,3.374
387.610,3.383
387.836,3.389
388.063,3.408
388.289,3.426
388.517,3.444
388.744,3.448
388.972,3.476
389.201,3.494
389.430,3.525
389.659,3.540
389.889,3.567
390.119,3.585
390.349,3.605
390.580,3.626
390.811,3.644
391.042,3.652
391.274,3.661
391.507,3.671
391.739,3.675
391.972,3.670
392.205,3.683
392.439,3.712
392.673,3.747
392.907,3.772
393.142,3.800
393.377,3.816
393.612,3.839
393.848,3.853
394.084,3.875
394.320,3.885
394.557,3.911
394.794,3.927
395.031,3.960
395.269,3.982
395.507,4.015
395.745,4.024
395.983,4.032
396.222,4.035
396.461,4.067
396.700,4.112
396.940,4.152
397.180,4.169
397.420,4.166
397.660,4.161
397.901,4.165
398.142,4.177
398.383,4.183
398.625,4.182
398.866,4.201
399.108,4.249
399.351,4.324
399.593,4.350
399.836,4.351
400.079,4.320
400.322,4.311
400.566,4.297
400.809,4.300
401.053,4.312
401.298,4.343
401.542,4.377
401.787,4.416
402.031,4.442
402.277,4.466
402.522,4.476
402.767,4.496
403.013,4.490
403.259,4.498
403.505,4.501
403.752,4.522
403.998,4.535
404.245,4.576
404.492,4.619
404.739,4.657
404.986,4.675
405.234,4.691
405.482,4.696
405.730,4.696
405.978,4.701
406.226,4.709
406.475,4.702
406.723,4.704
406.972,4.729
407.221,4.778
407.470,4.803
407.720,4.822
407.969,4.812
408.219,4.832
408.469,4.857
408.719,4.899
408.969,4.919
409.219,4.943
409.470,4.964
409.720,5.007
409.971,5.045
410.222,5.094
410.473,5.110
410.724,5.117
410.976,5.123
411.227,5.155
411.479,5.181
411.731,5.207
411.983,5.206
412.235,5.216
412.487,5.210
412.740,5.224
412.992,5.228
413.245,5.248
413.497,5.258
413.750,5.273
414.003,5.276
414.257,5.282
414.510,5.282
414.763,5.308
415.017,5.336
415.270,5.372
415.524,5.383
415.778,5.393
416.032,5.397
416.286,5.434
416.540,5.461
416.794,5.502
417.049,5.516
417.303,5.540
417.558,5.555
417.812,5.565
418.067,5.569
418.322,5.580
418.577,5.590
418.832,5.596
419.088,5.578
419.343,5.582
419.598,5.575
419.854,5.600
420.109,5.618
420.365,5.665
420.621,5.684
420.876,5.708
421.132,5.709
421.388,5.716
421.645,5.712
421.901,5.730
422.157,5.752
422.413,5.781
422.670,5.794
422.926,5.813
423.183,5.817
423.439,5.850
423.696,5.884
423.953,5.965
424.210,6.030
424.467,6.067
424.724,6.067
424.981,6.055
425.238,6.072
425.495,6.128
425.753,6.188
426.010,6.254
426.267,6.295
426.525,6.366
426.782,6.427
427.040,6.496
427.298,6.563
427.555,6.655
427.813,6.736
428.071,6.814
428.329,6.877
428.587,6.949
428.845,7.025
429.103,7.115
429.361,7.198
429.619,7.285
429.878,7.370
430.136,7.486
430.394,7.600
430.653,7.754
430.911,7.928
431.170,8.115
431.428,8.263
431.687,8.395
431.946,8.522
432.204,8.672
432.463,8.837
432.722,9.011
432.981,9.181
433.240,9.381
433.499,9.598
433.758,9.836
434.017,10.031
434.276,10.229
434.535,10.419
434.794,10.646
435.053,10.890
435.312,11.161
435.572,11.432
435.831,11.711
436.090,12.006
436.350,12.330
436.609,12.656
436.869,12.975
437.128,13.292
437.388,13.623
437.647,13.984
437.907,14.374
438.166,14.763
438.426,15.150
438.686,15.535
438.946,15.945
439.205,16.383
439.465,16.865
439.725,17.376
439.985,17.898
440.245,18.396
440.505,18.906
440.765,19.418
441.025,19.939
441.285,20.468
441.545,21.019
441.805,21.591
442.065,22.169
442.325,22.759
442.585,23.392
442.846,24.044
443.106,24.757
443.366,25.481
443.626,26.236
443.887,26.994
444.147,27.785
444.407,28.596
444.668,29.439
444.928,30.301
445.189,31.228
445.449,32.189
445.710,33.194
445.970,34.228
446.231,35.306
446.491,36.447
446.752,37.623
447.012,38.840
447.273,40.111
447.534,41.427
447.794,42.762
448.055,44.124
448.316,45.579
448.577,47.125
448.837,48.738
449.098,50.392
449.359,52.093
449.620,53.820
449.881,55.571
450.142,57.345
450.403,59.190
450.664,61.094
450.924,63.055
451.185,65.060
451.446,67.104
451.707,69.145
451.969,71.177
452.230,73.197
452.491,75.225
452.752,77.206
453.013,79.119
453.274,80.950
453.535,82.659
453.796,84.167
454.058,85.450
454.319,86.533
454.580,87.467
454.841,88.279
455.103,88.992
455.364,89.608
455.625,90.164
455.887,90.650
456.148,91.079
456.409,91.430
456.671,91.718
456.932,91.943
457.194,92.116
457.455,92.237
457.716,92.312
457.978,92.337
458.239,92.316
458.501,92.249
458.763,92.138
459.024,91.985
459.286,91.795
459.547,91.558
459.809,91.261
460.071,90.902
460.332,90.489
460.594,90.032
460.856,89.527
461.117,88.955
461.379,88.327
461.641,87.628
461.903,86.860
462.164,85.988
462.426,84.990
462.688,83.835
462.950,82.543
463.212,81.164
463.474,79.740
463.736,78.295
463.998,76.883
464.260,75.520
464.522,74.236
464.784,72.989
465.046,71.803
465.308,70.679
465.570,69.621
465.832,68.613
466.094,67.652
466.356,66.754
466.618,65.888
466.880,65.043
467.142,64.214
467.405,63.454
467.667,62.761
467.929,62.131
468.191,61.513
468.454,60.909
468.716,60.324
468.978,59.728
469.241,59.126
469.503,58.527
469.765,57.990
470.028,57.501
470.290,57.035
470.552,56.567
470.815,56.090
471.077,55.604
471.340,55.112
471.602,54.606
471.865,54.082
472.128,53.544
472.390,53.008
472.653,52.471
472.915,51.917
473.178,51.355
473.441,50.787
473.703,50.193
473.966,49.565
474.229,48.884
474.492,48.206
474.755,47.517
475.017,46.868
475.280,46.214
475.543,45.565
475.806,44.868
476.069,44.148
476.332,43.420
476.595,42.703
476.858,42.002
477.121,41.296
477.384,40.614
477.647,39.979
477.910,39.363
478.173,38.755
478.436,38.120
478.699,37.524
478.962,36.943
479.226,36.420
479.489,35.895
479.752,35.392
480.015,34.870
480.279,34.358
480.542,33.840
480.805,33.342
481.069,32.857
481.332,32.416
481.595,32.017
481.859,31.687
482.122,31.355
482.386,31.011
482.649,30.645
482.913,30.306
483.177,29.991
483.440,29.688
483.704,29.408
483.967,29.174
484.231,28.968
484.495,28.784
484.759,28.590
485.022,28.382
485.286,28.158
485.550,27.934
485.814,27.691
486.078,27.464
486.342,27.262
486.606,27.126
486.869,27.007
487.133,26.912
487.397,26.817
487.662,26.713
487.926,26.574
488.190,26.431
488.454,26.284
488.718,26.164
488.982,26.028
489.246,25.909
489.511,25.783
489.775,25.671
490.039,25.557
490.304,25.430
490.568,25.294
490.832,25.182
491.097,25.107
491.361,25.051
491.626,24.984
491.890,24.909
492.155,24.825
492.419,24.758
492.684,24.676
492.949,24.607
493.213,24.554
493.478,24.538
493.743,24.518
494.008,24.470
494.272,24.409
494.537,24.378
494.802,24.369
495.067,24.394
495.332,24.429
495.597,24.477
495.862,24.504
496.127,24.545
496.392,24.585
496.657,24.624
496.922,24.653
497.187,24.717
497.452,24.815
497.718,24.960
497.983,25.085
498.248,25.200
498.513,25.283
498.779,25.389
499.044,25.502
499.310,25.597
499.575,25.664
499.841,25.752
500.106,25.858
500.372,25.979
500.637,26.100
500.903,26.271
501.168,26.436
501.434,26.589
501.700,26.701
501.966,26.837
502.231,26.976
502.497,27.127
502.763,27.254
503.029,27.388
503.295,27.525
503.561,27.684
503.827,27.842
504.093,28.014
504.359,28.176
504.625,28.355
504.891,28.501
505.157,28.667
505.423,28.812
505.690,28.969
505.956,29.118
506.222,29.292
506.489,29.480
506.755,29.685
507.021,29.880
507.288,30.072
507.554,30.224
507.821,30.372
508.087,30.517
508.354,30.709
508.621,30.886
508.887,31.056
509.154,31.214
509.421,31.387
509.687,31.541
509.954,31.685
510.221,31.831
510.488,32.018
510.755,32.210
511.022,32.399
511.289,32.544
511.556,32.680
511.823,32.805
512.090,32.973
512.357,33.122
512.624,33.283
512.891,33.415
513.159,33.544
513.426,33.662
513.693,33.798
513.960,33.968
514.228,34.150
514.495,34.332
514.763,34.496
515.030,34.633
515.298,34.751
515.565,34.875
515.833,35.011
516.100,35.131
516.368,35.243
516.636,35.336
516.904,35.454
517.171,35.546
517.439,35.660
517.707,35.761
517.975,35.904
518.243,36.043
518.511,36.185
518.779,36.287
519.047,36.418
519.315,36.545
519.583,36.670
519.851,36.753
520.119,36.849
520.387,36.952
520.656,37.069
520.924,37.183
521.192,37.308
521.461,37.429
521.729,37.549
521.997,37.655
522.266,37.753
522.534,37.831
522.803,37.924
523.071,38.010
523.340,38.092
523.609,38.165
523.877,38.261
524.146,38.361
524.415,38.464
524.684,38.553
524.952,38.648
525.221,38.743
525.490,38.865
525.759,38.986
526.028,39.104
526.297,39.169
526.566,39.232
526.835,39.286
527.104,39.373
527.373,39.452
527.642,39.513
527.912,39.545
528.181,39.587
528.450,39.660
528.719,39.754
528.989,39.854
529.258,39.950
529.528,40.010
529.797,40.055
530.067,40.104
530.336,40.150
530.606,40.174
530.875,40.173
531.145,40.204
531.414,40.264
531.684,40.340
531.954,40.390
532.224,40.412
532.493,40.409
532.763,40.416
533.033,40.461
533.303,40.517
533.573,40.579
533.843,40.592
534.113,40.621
534.383,40.624
534.653,40.666
534.923,40.710
535.193,40.772
535.463,40.825
535.733,40.874
536.004,40.913
536.274,40.943
536.544,40.947
536.814,40.955
537.085,40.987
537.355,41.059
537.626,41.152
537.896,41.221
538.166,41.258
538.437,41.280
538.707,41.297
538.978,41.346
539.249,41.425
539.519,41.522
539.790,41.595
540.061,41.671
540.331,41.747
540.602,41.823
540.873,41.831
541.144,41.810
541.414,41.762
541.685,41.753
541.956,41.744
542.227,41.770
542.498,41.796
542.769,41.861
543.040,41.929
543.311,42.012
543.582,42.089
543.853,42.171
544.124,42.238
544.396,42.298
544.667,42.337
544.938,42.357
545.209,42.302
545.480,42.239
545.752,42.161
546.023,42.128
546.294,42.055
546.566,41.974
546.837,41.885
547.109,41.838
547.380,41.812
547.652,41.806
547.923,41.801
548.195,41.834
548.466,41.881
548.738,41.931
549.009,41.924
549.281,41.878
549.553,41.799
549.824,41.725
550.096,41.682
550.368,41.684
550.640,41.708
550.911,41.738
551.183,41.783
551.455,41.848
551.727,41.887
551.999,41.866
552.271,41.785
552.543,41.709
552.815,41.651
553.087,41.649
553.359,41.658
553.631,41.664
553.903,41.635
554.175,41.598
554.447,41.571
554.719,41.555
554.991,41.512
555.263,41.448
555.535,41.364
555.808,41.301
556.080,41.248
556.352,41.215
556.624,41.172
556.897,41.123
557.169,41.055
557.441,40.988
557.714,40.904
557.986,40.850
558.258,40.786
558.531,40.775
558.803,40.760
559.076,40.760
559.348,40.726
559.621,40.666
559.893,40.614
560.166,40.573
560.438,40.539
560.711,40.497
560.983,40.459
561.256,40.452
561.528,40.447
561.801,40.439
562.074,40.408
562.346,40.383
562.619,40.344
562.892,40.284
563.164,40.192
563.437,40.120
563.710,40.056
563.983,39.985
564.255,39.902
564.528,39.869
564.801,39.877
565.074,39.896
565.346,39.855
565.619,39.806
565.892,39.753
566.165,39.704
566.438,39.619
566.711,39.530
566.984,39.458
567.257,39.397
567.529,39.332
567.802,39.284
568.075,39.249
568.348,39.204
568.621,39.137
568.894,39.053
569.167,38.970
569.440,38.884
569.713,38.775
569.986,38.665
570.259,38.536
570.532,38.435
570.805,38.348
571.078,38.280
571.351,38.215
571.625,38.166
571.898,38.108
572.171,38.033
572.444,37.944
572.717,37.875
572.990,37.813
573.263,37.707
573.536,37.551
573.809,37.373
574.083,37.224
574.356,37.143
574.629,37.115
574.902,37.086
575.175,37.021
575.448,36.915
575.721,36.807
575.995,36.709
576.268,36.616
576.541,36.542
576.814,36.464
577.087,36.394
577.361,36.316
577.634,36.252
577.907,36.170
578.180,36.078
578.453,35.967
578.727,35.873
579.000,35.771
579.273,35.704
579.546,35.657
579.820,35.637
580.093,35.582
580.366,35.510
580.639,35.419
580.913,35.350
581.186,35.268
581.459,35.191
581.732,35.083
582.005,34.993
582.279,34.884
582.552,34.793
582.825,34.691
583.098,34.598
583.372,34.501
583.645,34.410
583.918,34.338
584.191,34.276
584.464,34.225
584.738,34.174
585.011,34.109
585.284,34.015
585.557,33.894
585.831,33.787
586.104,33.687
586.377,33.617
586.650,33.532
586.923,33.459
587.196,33.379
587.470,33.306
587.743,33.237
588.016,33.173
588.289,33.104
588.562,33.031
588.835,32.913
589.109,32.765
589.382,32.598
589.655,32.480
589.928,32.408
590.201,32.359
590.474,32.330
590.747,32.309
591.020,32.295
591.293,32.257
591.567,32.175
591.840,32.059
592.113,31.913
592.386,31.759
592.659,31.596
592.932,31.460
593.205,31.350
593.478,31.257
593.751,31.155
594.024,31.077
594.297,30.997
594.570,30.924
594.843,30.837
595.116,30.744
595.389,30.630
595.662,30.497
595.934,30.356
596.207,30.225
596.480,30.094
596.753,29.986
597.026,29.870
597.299,29.781
597.572,29.700
597.844,29.625
598.117,29.506
598.390,29.371
598.663,29.214
598.936,29.071
599.208,28.925
599.481,28.802
599.754,28.689
600.026,28.554
600.299,28.412
600.572,28.283
600.844,28.169
601.117,28.054
601.390,27.926
601.662,27.806
601.935,27.661
602.207,27.509
602.480,27.357
602.752,27.218
603.025,27.055
603.297,26.907
603.570,26.789
603.842,26.737
604.115,26.661
604.387,26.571
604.660,26.424
604.932,26.281
605.204,26.137
605.477,26.014
605.749,25.906
606.021,25.800
606.294,25.682
606.566,25.531
606.838,25.389
607.110,25.261
607.383,25.173
607.655,25.105
607.927,25.071
608.199,25.055
608.471,25.006
608.743,24.902
609.015,24.741
609.287,24.584
609.559,24.435
609.831,24.309
610.103,24.169
610.375,24.023
610.647,23.849
610.919,23.672
611.191,23.499
611.463,23.353
611.735,23.194
612.007,23.020
612.278,22.834
612.550,22.668
612.822,22.523
613.094,22.380
613.365,22.208
613.637,22.044
613.909,21.865
614.180,21.714
614.452,21.546
614.723,21.388
614.995,21.227
615.266,21.096
615.538,21.008
615.809,20.944
616.081,20.842
616.352,20.709
616.623,20.547
616.895,20.382
617.166,20.199
617.437,20.015
617.709,19.855
617.980,19.734
618.251,19.637
618.522,19.562
618.793,19.501
619.065,19.470
619.336,19.398
619.607,19.294
619.878,19.166
620.149,19.066
620.420,18.945
620.691,18.799
620.962,18.649
621.232,18.533
621.503,18.415
621.774,18.292
622.045,18.164
622.316,18.085
622.586,18.024
622.857,17.978
623.128,17.894
623.398,17.794
623.669,17.666
623.940,17.542
624.210,17.414
624.481,17.321
624.751,17.215
625.021,17.105
625.292,16.974
625.562,16.880
625.833,16.795
626.103,16.724
626.373,16.635
626.643,16.566
626.914,16.480
627.184,16.401
627.454,16.310
627.724,16.231
627.994,16.150
628.264,16.062
628.534,15.953
628.804,15.838
629.074,15.741
629.344,15.665
629.614,15.596
629.884,15.513
630.154,15.430
630.424,15.356
630.693,15.278
630.963,15.187
631.233,15.083
631.502,15.001
631.772,14.940
632.041,14.869
632.311,14.767
632.581,14.643
632.850,14.525
633.119,14.404
633.389,14.299
633.658,14.220
633.928,14.183
634.197,14.165
634.466,14.144
634.735,14.104
635.004,14.026
635.274,13.941
635.543,13.853
635.812,13.777
636.081,13.692
636.350,13.608
636.619,13.525
636.888,13.442
637.157,13.357
637.426,13.291
637.694,13.238
637.963,13.187
638.232,13.136
638.501,13.072
638.769,13.015
639.038,12.951
639.307,12.900
639.575,12.837
639.844,12.736
640.112,12.619
640.381,12.499
640.649,12.410
640.917,12.351
641.186,12.297
641.454,12.254
641.722,12.196
641.991,12.139
642.259,12.053
642.527,11.966
642.795,11.894
643.063,11.821
643.331,11.754
643.599,11.687
643.867,11.661
644.135,11.631
644.403,11.607
644.671,11.548
644.939,11.497
645.206,11.430
645.474,11.369
645.742,11.283
646.009,11.187
646.277,11.113
646.545,11.063
646.812,11.040
647.080,11.010
647.347,10.955
647.615,10.877
647.882,10.773
648.149,10.681
648.417,10.599
648.684,10.534
648.951,10.486
649.219,10.438
649.486,10.380
649.753,10.313
650.020,10.231
650.287,10.157
650.554,10.071
650.821,9.993
651.088,9.910
651.355,9.859
651.622,9.799
651.889,9.750
652.155,9.680
652.422,9.630
652.689,9.589
652.956,9.547
653.222,9.506
653.489,9.476
653.755,9.423
654.022,9.333
654.288,9.218
654.555,9.125
654.821,9.057
655.088,8.998
655.354,8.942
655.620,8.898
655.887,8.852
656.153,8.805
656.419,8.743
656.685,8.681
656.951,8.624
657.217,8.564
657.483,8.500
657.749,8.433
658.015,8.372
658.281,8.314
658.547,8.242
658.813,8.172
659.079,8.104
659.345,8.029
659.610,7.959
659.876,7.890
660.142,7.837
660.407,7.783
660.673,7.731
660.939,7.692
661.204,7.642
661.470,7.593
661.735,7.539
662.000,7.501
662.266,7.458
662.531,7.399
662.796,7.328
663.062,7.251
663.327,7.180
663.592,7.136
663.857,7.109
664.122,7.080
664.388,7.026
664.653,6.973
664.918,6.936
665.183,6.899
665.448,6.866
665.712,6.827
665.977,6.792
666.242,6.752
666.507,6.670
666.772,6.588
667.037,6.506
667.301,6.467
667.566,6.428
667.831,6.400
668.095,6.359
668.360,6.325
668.624,6.256
668.889,6.218
669.153,6.170
669.418,6.141
669.682,6.095
669.946,6.063
670.211,6.058
670.475,6.046
670.739,6.030
671.004,6.003
671.268,6.003
671.532,6.020
671.796,5.959
672.060,5.875
672.324,5.774
672.588,5.746
672.852,5.727
673.116,5.753
673.380,5.791
673.644,5.726
673.908,5.602
674.172,5.466
674.436,5.430
674.700,5.408
674.963,5.385
675.227,5.356
675.491,5.300
675.754,5.240
676.018,5.182
676.282,5.157
676.545,5.124
676.809,5.078
677.072,5.018
677.336,4.966
677.599,4.930
677.863,4.891
678.126,4.860
678.389,4.854
678.653,4.860
678.916,4.851
679.179,4.801
679.442,4.754
679.706,4.728
679.969,4.709
680.232,4.682
680.495,4.664
680.758,4.650
681.021,4.619
681.284,4.553
681.547,4.487
681.810,4.454
682.073,4.457
682.336,4.455
682.599,4.430
682.862,4.392
683.125,4.368
683.388,4.360
683.651,4.352
683.913,4.336
684.176,4.279
684.439,4.205
684.702,4.130
684.964,4.087
685.227,4.067
685.490,4.066
685.752,4.078
686.015,4.068
686.277,4.038
686.540,3.988
686.802,3.933
687.065,3.895
687.327,3.874
687.590,3.868
687.852,3.848
688.115,3.808
688.377,3.775
688.639,3.755
688.902,3.741
689.164,3.729
689.426,3.726
689.689,3.722
689.951,3.697
690.213,3.656
690.475,3.620
690.737,3.593
691.000,3.562
691.262,3.535
691.524,3.527
691.786,3.534
692.048,3.543
692.310,3.525
692.572,3.478
692.834,3.423
693.096,3.392
693.358,3.391
693.620,3.409
693.882,3.421
694.144,3.410
694.406,3.374
694.668,3.336
694.930,3.297
695.192,3.259
695.453,3.227
695.715,3.208
695.977,3.187
696.239,3.150
696.501,3.123
696.762,3.122
697.024,3.128
697.286,3.102
697.548,3.071
697.809,3.047
698.071,3.032
698.333,3.011
698.594,2.985
698.856,2.974
699.118,2.962
699.379,2.950
699.641,2.939
699.902,2.933
700.164,2.922
700.426,2.899
700.687,2.867
700.949,2.850
701.210,2.837
701.472,2.818
701.733,2.783
701.995,2.762
702.256,2.749
702.518,2.742
702.779,2.722
703.041,2.727
703.302,2.741
703.563,2.736
703.825,2.700
704.086,2.660
704.348,2.638
704.609,2.631
704.871,2.637
705.132,2.650
705.393,2.637
705.655,2.617
705.916,2.598
706.177,2.591
706.439,2.582
706.700,2.567
706.961,2.552
707.223,2.541
707.484,2.506
707.745,2.470
708.007,2.429
708.268,2.393
708.529,2.357
708.790,2.310
709.052,2.274
709.313,2.257
709.574,2.251
709.835,2.248
710.097,2.220
710.358,2.176
710.619,2.134
710.881,2.100
711.142,2.082
711.403,2.060
711.664,2.047
711.926,2.020
712.187,2.012
712.448,2.009
712.709,2.023
712.970,2.034
713.232,2.039
713.493,2.040
713.754,2.032
714.015,2.025
714.277,2.027
714.538,2.036
714.799,2.053
715.060,2.052
715.322,2.040
715.583,2.010
715.844,1.981
716.105,1.952
716.367,1.934
716.628,1.928
716.889,1.920
717.150,1.897
717.411,1.867
717.673,1.849
717.934,1.846
718.195,1.847
718.457,1.831
718.718,1.801
718.979,1.782
719.240,1.782
719.502,1.800
719.763,1.817
720.024,1.827
720.286,1.825
720.547,1.799
720.808,1.770
721.069,1.750
721.331,1.753
721.592,1.770
721.853,1.778
722.115,1.779
722.376,1.779
722.638,1.775
722.899,1.770
723.160,1.749
723.422,1.731
723.683,1.716
723.944,1.722
724.206,1.726
724.467,1.723
724.729,1.712
724.990,1.720
725.252,1.735
725.513,1.727
725.775,1.697
726.036,1.671
726.298,1.665
726.559,1.678
726.821,1.681
727.082,1.682
727.344,1.674
727.605,1.672
727.867,1.663
728.128,1.669
728.390,1.675
728.652,1.693
728.913,1.715
729.175,1.728
729.436,1.731
729.698,1.730
729.960,1.719
730.221,1.701
730.483,1.663
730.745,1.646
731.007,1.645
731.268,1.652
731.530,1.658
731.792,1.661
732.054,1.673
732.315,1.681
732.577,1.689
732.839,1.678
733.101,1.661
733.363,1.646
733.625,1.641
733.887,1.645
734.149,1.646
734.411,1.656
734.673,1.668
734.935,1.676
735.197,1.672
735.459,1.675
735.721,1.679
735.983,1.673
736.245,1.644
736.507,1.634
736.769,1.644
737.031,1.661
737.293,1.653
737.555,1.631
737.818,1.615
738.080,1.604
738.342,1.602
738.604,1.599
738.867,1.604
739.129,1.601
739.391,1.598
739.654,1.596
739.916,1.602
740.178,1.616
740.441,1.636
740.703,1.648
740.966,1.644
741.228,1.631
741.491,1.620
741.753,1.623
742.016,1.624
742.278,1.626
742.541,1.624
742.804,1.629
743.066,1.643
743.329,1.651
743.592,1.644
743.854,1.640
744.117,1.644
744.380,1.654
744.643,1.647
744.905,1.628
745.168,1.619
745.431,1.611
745.694,1.605
745.957,1.594
746.220,1.584
746.483,1.579
746.746,1.577
747.009,1.598
747.272,1.636
747.535,1.670
747.798,1.677
748.061,1.653
748.324,1.621
748.588,1.599
748.851,1.593
749.114,1.594
749.377,1.605
749.641,1.608
749.904,1.620
750.167,1.633
750.431,1.644
750.694,1.657
750.958,1.663
751.221,1.657
751.485,1.629
751.748,1.607
752.012,1.612
752.275,1.647
752.539,1.662
752.803,1.652
753.066,1.620
753.330,1.594
753.594,1.583
753.857,1.581
754.121,1.594
754.385,1.610
754.649,1.626
754.913,1.633
755.177,1.642
755.441,1.634
755.705,1.614
755.969,1.586
756.233,1.589
756.497,1.601
756.761,1.605
757.025,1.591
757.289,1.582
757.553,1.582
757.818,1.594
758.082,1.607
758.346,1.616
758.610,1.618
758.875,1.612
759.139,1.604
759.404,1.592
759.668,1.582
759.932,1.589
760.197,1.606
760.462,1.617
760.726,1.615
760.991,1.611
761.255,1.612
761.520,1.611
761.785,1.597
762.049,1.565
762.314,1.538
762.579,1.541
762.844,1.570
763.109,1.594
763.374,1.593
763.639,1.583
763.903,1.568
764.168,1.558
764.433,1.555
764.699,1.580
764.964,1.602
765.229,1.602
765.494,1.577
765.759,1.555
766.024,1.541
766.290,1.551
766.555,1.566
766.820,1.583
767.086,1.591
767.351,1.594
767.616,1.593
767.882,1.584
768.147,1.569
768.413,1.551
768.678,1.533
768.944,1.533
769.209,1.552
769.475,1.582
769.741,1.603
770.006,1.620
770.272,1.630
770.538,1.629
770.804,1.613
771.070,1.601
771.335,1.610
771.601,1.634
771.867,1.647
772.133,1.641
772.399,1.624
772.665,1.589
772.931,1.575
773.197,1.582
773.464,1.612
773.730,1.632
773.996,1.634
774.262,1.636
774.528,1.626
774.795,1.627
775.061,1.637
775.327,1.643
775.594,1.628
775.860,1.593
776.126,1.548
776.393,1.512
776.659,1.491
776.926,1.482
777.193,1.488
777.459,1.497
777.726,1.501
777.992,1.501
778.259,1.494
778.526,1.504
778.793,1.514
779.059,1.534
779.326,1.556
779.593,1.574
779.860,1.593
780.127,1.595
780.394,1.591
780.661,1.579
780.928,1.557
781.195,1.532
781.462,1.509
781.729,1.510
781.996,1.525
782.263,1.538
782.530,1.560
782.797,1.571
783.064,1.559
783.332,1.534
783.599,1.506
783.866,1.507
784.134,1.506
784.401,1.506
784.668,1.505
784.936,1.509
785.203,1.507
785.470,1.490
785.738,1.478
786.005,1.479
786.273,1.480
786.541,1.470
786.808,1.469
787.076,1.477
787.343,1.494
787.611,1.518
787.879,1.546
788.146,1.551
788.414,1.556
788.682,1.546
788.950,1.543
789.217,1.540
789.485,1.560
789.753,1.581
790.021,1.565
790.289,1.520
790.557,1.475
790.825,1.456
791.093,1.467
791.361,1.498
791.629,1.534
791.897,1.557
792.165,1.554
792.433,1.534
792.701,1.498
792.969,1.466
793.237,1.448
793.505,1.465
793.773,1.493
794.042,1.502
794.310,1.491
794.578,1.476
794.846,1.472
795.115,1.469
795.383,1.476
795.651,1.502
795.920,1.523
796.188,1.528
796.456,1.536
796.725,1.547
796.993,1.573
797.261,1.585
797.530,1.582
797.798,1.558
798.067,1.550
798.335,1.562
798.604,1.560
798.872,1.530
799.141,1.496
799.409,1.482
799.678,1.487
799.946,1.502
800.215,1.511
800.483,1.509
800.752,1.503
801.020,1.498
801.289,1.495
801.558,1.496
801.826,1.499
802.095,1.490
802.363,1.486
802.632,1.491
802.901,1.512
803.169,1.526
803.438,1.522
803.707,1.499
803.976,1.469
804.244,1.459
804.513,1.462
804.782,1.458
805.050,1.453
805.319,1.458
805.588,1.484
805.857,1.515
806.125,1.530
806.394,1.524
806.663,1.498
806.931,1.471
807.200,1.458
807.469,1.459
807.738,1.458
808.006,1.455
808.275,1.469
808.544,1.503
808.813,1.535
809.082,1.535
809.350,1.510
809.619,1.490
809.888,1.478
810.157,1.471
810.425,1.463
810.694,1.466
810.963,1.479
811.232,1.478
811.500,1.469
811.769,1.453
812.038,1.460
812.306,1.479
812.575,1.509
812.844,1.526
813.113,1.529
813.381,1.509
813.650,1.500
813.919,1.512
814.187,1.537
814.456,1.550
814.725,1.553
814.993,1.538
815.262,1.525
815.531,1.514
815.799,1.510
816.068,1.496
816.336,1.466
816.605,1.455
816.873,1.464
817.142,1.493
817.411,1.519
817.679,1.535
817.948,1.553
818.216,1.583
818.485,1.646
818.753,1.701
819.021,1.667
819.290,1.573
819.558,1.494
819.827,1.494
820.095,1.520
820.363,1.532
820.632,1.527
820.900,1.522
821.168,1.529
821.437,1.549
821.705,1.557
821.973,1.558
822.241,1.549
822.509,1.545
822.777,1.525
823.046,1.509
823.314,1.509
823.582,1.523
823.850,1.537
824.118,1.550
824.386,1.553
824.654,1.520
824.922,1.473
825.190,1.438
825.457,1.453
825.725,1.479
825.993,1.484
826.261,1.472
826.529,1.465
826.796,1.470
827.064,1.471
827.332,1.469
827.599,1.483
827.867,1.516
828.134,1.531
828.402,1.511
828.669,1.477
828.937,1.460
829.204,1.489
829.471,1.538
829.739,1.576
830.006,1.581
830.273,1.552
830.540,1.514
830.807,1.472
831.075,1.459
831.342,1.477
831.609,1.494
831.876,1.509
832.142,1.517
832.409,1.529
832.676,1.520
832.943,1.490
833.210,1.460
833.476,1.448
833.743,1.457
834.010,1.469
834.276,1.462
834.543,1.449
834.809,1.450
835.076,1.465
835.342,1.475
835.608,1.502
835.874,1.528
836.141,1.530
836.407,1.511
836.673,1.483
836.939,1.477
837.205,1.468
837.471,1.465
837.737,1.467
838.002,1.469
838.268,1.468
838.534,1.474
838.799,1.475
839.065,1.489
839.330,1.492
839.596,1.494
839.861,1.497
840.127,1.512
840.392,1.531
840.657,1.545
840.922,1.563
841.187,1.579
841.452,1.577
841.717,1.569
841.982,1.544
842.247,1.516
842.511,1.488
842.776,1.483
843.041,1.489
843.305,1.478
843.570,1.465
843.834,1.459
844.098,1.458
844.362,1.459
844.627,1.456
844.891,1.460
845.155,1.469
845.419,1.485
845.682,1.497
845.946,1.503
846.210,1.506
846.474,1.501
846.737,1.509
847.001,1.504
847.264,1.487
847.527,1.466
847.790,1.459
848.054,1.463
848.317,1.453
848.580,1.444
848.843,1.448
849.105,1.480
849.368,1.520
849.631,1.543
849.893,1.556
850.156,1.571
850.418,1.581
850.680,1.547
850.943,1.509
851.205,1.502
851.467,1.508
851.729,1.500
851.991,1.486
852.252,1.494
852.514,1.516
852.776,1.527
853.037,1.540
853.298,1.535
853.560,1.517
853.821,1.481
854.082,1.447
854.343,1.451
854.604,1.495
854.865,1.558
855.126,1.595
855.386,1.608
855.647,1.603
855.907,1.586
856.168,1.550
856.428,1.513
856.688,1.493
856.948,1.464
857.208,1.439
857.468,1.430
857.727,1.449
857.987,1.470
858.247,1.483
858.506,1.506
858.765,1.520
859.024,1.501
859.284,1.470
859.543,1.443
859.801,1.439
860.060,1.445
860.319,1.473
860.577,1.508
860.836,1.529
861.094,1.539
861.352,1.536
861.611,1.518
861.869,1.488
862.127,1.473
862.384,1.484
862.642,1.497
862.900,1.520
863.157,1.532
863.414,1.523
863.672,1.487
863.929,1.441
864.186,1.429
864.443,1.441
864.699,1.463
864.956,1.476
865.212,1.461
865.469,1.451
865.725,1.458
865.981,1.488
866.237,1.506
866.493,1.512
866.749,1.493
867.005,1.479
867.260,1.458
867.516,1.446
867.771,1.433
868.026,1.435
868.282,1.463
868.536,1.481
868.791,1.478
869.046,1.452
869.301,1.438
869.555,1.444
869.809,1.471
870.064,1.495
870.318,1.518
870.572,1.531
870.826,1.507
871.079,1.477
871.333,1.452
871.586,1.459
871.840,1.464
872.093,1.461
872.346,1.475
872.599,1.510
872.852,1.554
873.105,1.577
873.357,1.560
873.610,1.521
873.862,1.506
874.114,1.516
874.366,1.531
874.618,1.518
874.870,1.479
875.121,1.443
875.373,1.430
875.624,1.440
875.876,1.452
876.127,1.458
876.378,1.459
876.629,1.457
876.879,1.465
877.130,1.474
877.381,1.469
877.631,1.445
877.881,1.427
878.131,1.442
878.381,1.484
878.631,1.533
878.881,1.557
879.130,1.552
879.380,1.529
879.629,1.509
879.878,1.489
880.127,1.474
880.376,1.476
880.625,1.501
880.873,1.535
881.122,1.557
881.370,1.557
881.618,1.532
881.866,1.500
882.114,1.470
882.362,1.464
882.610,1.480
882.857,1.495
883.105,1.498
883.352,1.474
883.599,1.451
883.846,1.434
884.093,1.431
884.340,1.447
884.586,1.475
884.833,1.495
885.079,1.500
885.325,1.482
885.571,1.474
885.817,1.469
886.063,1.487
886.309,1.500
886.554,1.525
886.800,1.544
887.045,1.551
887.290,1.522
887.535,1.479
887.780,1.462
888.025,1.485
888.270,1.527
888.514,1.567
888.758,1.572
889.003,1.554
889.247,1.506
889.491,1.494
889.735,1.506
889.978,1.536
890.222,1.540
890.465,1.523
890.709,1.500
890.952,1.475
891.195,1.455
891.438,1.451
891.681,1.445
891.923,1.447
892.166,1.453
892.408,1.459
892.651,1.450
892.893,1.433
893.135,1.425
893.377,1.432
893.619,1.443
893.861,1.462
894.102,1.483
894.344,1.522
894.585,1.564
894.826,1.587
895.067,1.565
895.308,1.530
895.549,1.489
895.790,1.467
896.031,1.445
896.271,1.454
896.512,1.488
896.752,1.520
896.992,1.521
897.232,1.496
897.472,1.475
897.712,1.492
897.952,1.532
898.191,1.551
898.431,1.543
898.670,1.539
898.910,1.547
899.149,1.574
899.388,1.586
899.627,1.588
899.866,1.565
900.105,1.527
900.343,1.505
900.582,1.506
900.820,1.528
901.059,1.562
901.297,1.579
901.535,1.547
901.773,1.495
902.011,1.449
902.249,1.426
902.487,1.420
902.725,1.425
902.963,1.448
903.200,1.453
903.438,1.451
903.675,1.456
903.912,1.477
904.150,1.506
904.387,1.514
904.624,1.493
904.861,1.462
905.098,1.441
905.334,1.449
905.571,1.448
905.808,1.452
906.045,1.467
906.281,1.486
906.518,1.497
906.754,1.506
906.990,1.514
907.227,1.512
907.463,1.486
907.699,1.466
907.935,1.474
908.171,1.502
908.407,1.508
908.643,1.500
908.879,1.489
909.115,1.505
909.350,1.520
909.586,1.526
909.822,1.524
910.057,1.544
910.293,1.587
910.528,1.616
910.764,1.611
910.999,1.600
911.235,1.576
911.470,1.574
911.706,1.555
911.941,1.551
912.176,1.527
912.412,1.501
912.647,1.493
912.882,1.503
913.117,1.514
913.352,1.505
913.588,1.485
913.823,1.470
914.058,1.466
914.293,1.471
914.528,1.466
914.763,1.457
914.999,1.448
915.234,1.449
915.469,1.458
915.704,1.461
915.939,1.460
916.174,1.451
916.409,1.452
916.645,1.483
916.880,1.517
917.115,1.538
917.350,1.524
917.586,1.507
917.821,1.502
918.056,1.516
918.292,1.533
918.527,1.526
918.763,1.500
918.998,1.477
919.234,1.497
919.469,1.539
919.705,1.564
919.940,1.551
920.176,1.533
920.412,1.541
920.648,1.545
920.884,1.530
921.120,1.501
921.356,1.484
921.592,1.476
921.828,1.470
922.065,1.473
922.301,1.496
922.537,1.532
922.774,1.550
923.011,1.530
923.247,1.492
923.484,1.483
923.721,1.508
923.958,1.536
924.195,1.539
924.433,1.521
924.670,1.489
924.908,1.457
925.145,1.452
925.383,1.477
925.621,1.504
925.859,1.518
926.097,1.525
926.335,1.526
926.574,1.536
926.813,1.543
927.051,1.545
927.290,1.537
927.529,1.550
927.769,1.587
928.008,1.609
928.248,1.568
928.487,1.518
928.727,1.496
928.967,1.534
929.208,1.564
929.448,1.566
929.689,1.542
929.930,1.509
930.171,1.482
930.413,1.471
930.654,1.468
930.896,1.456
931.138,1.440
931.380,1.428
931.623,1.445
931.865,1.474
932.108,1.504
932.352,1.521
932.595,1.524
932.839,1.531
933.083,1.517
933.327,1.497
933.571,1.469
933.816,1.474
934.061,1.489
934.307,1.495
934.552,1.472
934.798,1.458
935.045,1.460
935.291,1.472
935.538,1.482
935.785,1.499
936.033,1.523
936.281,1.541
936.529,1.544
936.777,1.533
937.026,1.508
937.275,1.492
937.525,1.472
937.775,1.458
938.025,1.446
938.276,1.440
938.527,1.444
938.778,1.441
939.030,1.439
939.282,1.439
939.535,1.452
939.788,1.475
940.041,1.478
940.295,1.468
940.550,1.469
940.804,1.496
941.059,1.525
941.315,1.517
941.571,1.484
941.828,1.457
942.085,1.451
942.342,1.460
942.600,1.463
942.858,1.463
943.117,1.452
943.377,1.441
943.636,1.428
943.897,1.425
944.158,1.433
944.419,1.449
944.681,1.463
944.944,1.477
945.207,1.491
945.470,1.508
945.734,1.520
945.999,1.545
946.264,1.574
946.530,1.590
946.797,1.581
947.064,1.559
947.331,1.535
947.600,1.501
947.869,1.473
948.138,1.453
948.408,1.447
948.679,1.452
948.950,1.467
949.222,1.468
949.495,1.460
949.768,1.455
950.043,1.481
